0,1,2,3,4,5,6,7,8,9,10,11,12,13,14,15,16,17,18,19,20,21,22,23,24,25,26,27,28,29,30,31,32,33,34,35,36,37,38,39,40,41,42,43,44,45,46,47,48,49,50,51,52,53,54,55,56,57,58,59,60,61,62,63,64,65,66,67,68,69,70,71,72,73,74,75,76,77,78,79,80,81,82,83,84,85,86,87,88,89,90,91,92,93,94,95,96,97,98,99,100,101,102,103,104,105,106,107,108,109,110,111,112,113,114,115,116,117,118,119,120,121,122,123,124,125,126,127,128,129,130,131,132,133,134,135,136,137,138,139,140,141,142,143,144,145,146,147,148,149,150,151,152,153,154,155,156,157,158,159,160,161,162,163,164,165,166,167,168,169,170,171,172,173,174,175,176,177,178,179,180,181,182,183,184,185,186,187,188,189,190,191,192,193,194,195,196,197,198,199,200,201,202,203,204,205,206,207,208,209,210,211,212,213,214,215,216,217,218,219,220,221,222,223,224,225,226,227,228,229,230,231,232,233,234,235,236,237,238,239,240,241,242,243,244,245,246,247,248,249,250,251,252,253,254,Target
0.855556150460433,0.8923965574895025,0.907302362491772,0.9096148595192726,0.8870421897128966,0.8222511338877927,0.74215884010517,0.6576583044641342,0.5705077972272887,0.4825635645352434,0.3943410978102152,0.3066536316909898,0.22630943288803862,0.22910283135461773,0.3156528969470963,0.4078305618256184,0.5000176603162515,0.5921977956933233,0.683050173567618,0.7696164123637688,0.8578083790842534,0.938423951321482,0.9620820918472535,0.9127082524708519,0.8901954920094333,0.8478256841172449,0.8537037580716549,0.8962704882308192,0.909952157651722,0.9024461483592789,0.8753509109832704,0.8858966217656463,0.9243359518563994,0.9487705376094893,0.9604606158273914,0.9456302138861561,0.8896200092984359,0.8119366455229005,0.7267370592686186,0.6393726223388303,0.552745568338471,0.4650113096071391,0.3802894940838172,0.3579140332932894,0.43832420608228784,0.5290806475182592,0.6157186368336518,0.7059161321425007,0.7805843140439508,0.8482624705455091,0.9249671888673345,1.0,0.9996794895316861,0.9497929577133097,0.9464081618170754,0.9018976991642162,0.8632735366006694,0.8995684423583052,0.9234066146909532,0.9131656236253602,0.8823374442235277,0.8482268311093817,0.8559700196191087,0.9021037161095973,0.9298981771977546,0.939622175321476,0.9284405707493588,0.8817650133008572,0.8044215821470462,0.7202686975956518,0.6344285706701225,0.5481682069385013,0.4598441300945324,0.3722560768998213,0.298668034466152,0.3367528230240522,0.42746803507305986,0.5166237057603817,0.6043632773850693,0.6961782632984306,0.7808913485096822,0.8584633341289181,0.942777238574148,0.9912298142096725,0.9493450596907165,0.9079948694530102,0.8648702730935225,0.8341902873909521,0.8643854024982185,0.87079924809056,0.8519634201904605,0.822691986134416,0.8152112836617542,0.8469377476612148,0.8630242849561203,0.8653100531429163,0.8498965352967818,0.7895731502639138,0.7107446813016529,0.6265393258915635,0.5406348474654973,0.4525999808882579,0.36587386462936855,0.3187455870221765,0.3823360414677912,0.47347489024374745,0.5640692024075378,0.650782579027551,0.741864329358348,0.8288047309987945,0.9119523452901306,0.9413417127710211,0.8933400505391316,0.8609916837526275,0.8172257694296274,0.8232989776610427,0.8608246651630391,0.86073232221015,0.8480430430363739,0.8364300588447795,0.8402582630173014,0.8097525332627553,0.7687945372699798,0.7978180097858145,0.8441591613685975,0.8663324357235278,0.8248151759708953,0.7384965136968862,0.6499420336746402,0.5601324281626825,0.4730011134974722,0.38136779654543185,0.2933269108244695,0.2045040795928592,0.1133244101545362,0.02942334172018113,0.0,0.06879510662685329,0.15428997318810822,0.2405422606084484,0.32821189114719107,0.4150940038984685,0.5045657294514172,0.5910946644962742,0.6760416643896805,0.756653594092223,0.8248835816223958,0.8431358325536948,0.8363048084472859,0.8174220515438191,0.7833156628326403,0.7919849743890097,0.8233617112550187,0.8437480575481775,0.8391136324932122,0.7963891931331235,0.7997457071663907,0.8542921575887927,0.893555884108252,0.9092892623470967,0.845920703468386,0.7555710160043299,0.6689785619392183,0.5780604452534233,0.4893193849750058,0.4012062705430497,0.3092868774579993,0.2208947971903269,0.13250748019009317,0.048000709712990586,0.03752201534419475,0.1157683804712637,0.2020196076072881,0.28875784682379035,0.3758805025519324,0.4548946215552835,0.5254831318263435,0.6087306785531617,0.6961085449679392,0.7797134945980513,0.8587804483461867,0.9070961852241752,0.9135449112127163,0.8983951504263341,0.8622724593708779,0.8188107250960068,0.8232903851272724,0.8585277542898564,0.889760769739143,0.8972875792847714,0.8588421107933979,0.8283473292081429,0.870392251241578,0.9088757291069225,0.925896526186992,0.9221612540760942,0.8439293902133422,0.7553455166431045,0.6682867564606338,0.5768638501737586,0.48961020112977793,0.39986611202148414,0.3077386560388554,0.21790596962250852,0.13090232984565675,0.05543981927152597,0.07723655561617204,0.15940589366675983,0.2471433027865827,0.3341545463005834,0.42223937147445534,0.5096270823270037,0.5959388583223655,0.6828890184200949,0.7690585145021778,0.8514802943773385,0.915165732498356,0.9320732398994571,0.9187042364137372,0.8881474550070503,0.8509497039164702,0.8474721185686949,0.8771493999801447,0.885785520564119,0.8632531425905339,0.8123067380066862,0.7994393087210387,0.8491381455395517,0.8772554088209343,0.8801016626944143,0.8155089460723022,0.7341918009946953,0.6468955279033397,0.5578544303868724,0.4659914891722673,0.3784538461522573,0.28906406042726085,0.19761774314854885,0.11094950692823247,0.02646370755206162,0.01176433552839018,0.08814618106915562,0.17488444597063058,0.2614865628878721,0.3487441268915832,0.4360534400332722,0.5232504398003072,0.611982817152602,0.6978250428971584,0.7807234538105896,0.8552543270973079,0.8851140266012947,0.8811340537217625,0.8596588775212943,0.8184656060259907,HB
0.7776664787651386,0.7958303691404818,0.7741805951533154,0.7514993314016571,0.7549941294945124,0.6950917428215422,0.65057506555782,0.6836790808318347,0.76097449580443,0.8419449597249642,0.8968527214649984,0.8995142584305791,0.8836426926963497,0.8524130772041802,0.8463190705524624,0.8341426246873365,0.7645513889921598,0.6352813301730054,0.5007312624689764,0.36562129734098825,0.26662111664942145,0.3616345883318757,0.5050416793195773,0.657221036563234,0.7959877538018403,0.8710010988255839,0.8035570678662567,0.7693537903874335,0.721075307475576,0.6359877063741477,0.5311683606861708,0.5263989630808954,0.6271099159622082,0.7038845038251376,0.7713000128575178,0.8312927186253609,0.8513989278787855,0.8606913697748175,0.856563276875145,0.8076127823803643,0.7861398355785845,0.7225673957299628,0.7062019447550645,0.7338949556507464,0.8218538018699255,0.9042277372855887,1.0000000000000004,0.9830760195664827,0.9572654310159594,0.9446162557904652,0.935088507539759,0.9213567890846255,0.8997257146600632,0.8148625120974899,0.6840715709138894,0.535400727184856,0.45049295245686993,0.5358072486866927,0.685233253386238,0.8193170767827307,0.8798633553469402,0.8401484205957064,0.790784817558186,0.7034809870529273,0.6083612595746795,0.5337775022380256,0.6017192987963353,0.6764311144513848,0.7186459841307533,0.755280335932992,0.7768078166825791,0.7946224444798848,0.7876412031805899,0.7659786177605321,0.7207204069736188,0.696540585231348,0.6801704011627443,0.6939980375656054,0.7409956578381616,0.8288893815532403,0.9086518310046636,0.9090148652066095,0.8823544978935018,0.9071687332666536,0.923216698534064,0.8977431100958473,0.8813774633052875,0.8305389526364055,0.6919963746482605,0.5650340487071301,0.4341939697732591,0.3208019686591794,0.3880104829587343,0.5287319341917973,0.6839249647461934,0.8067729450043175,0.8114639138359996,0.7789030370706591,0.744541012119706,0.6566757473813944,0.5743100406532076,0.5704815181284246,0.6260521598158273,0.7211813052465077,0.7609062989092159,0.7732704119049343,0.748038072065857,0.7558827248686537,0.7699669362314503,0.7265362454975564,0.6750768042408684,0.6672373256998383,0.7222487673891713,0.7980662911405103,0.8827439154189327,0.9138184356554531,0.9241814157841466,0.9463948426465607,0.9144625923550005,0.881765663097529,0.9211418407360403,0.8489674456892353,0.7614362035523583,0.7771624637128958,0.8099848837638604,0.7923196518081115,0.8103950385718934,0.8191064029197874,0.7825386486869852,0.7034222944683415,0.629943482280567,0.5762656705964941,0.5711231811842579,0.6150231542859896,0.6582334890584471,0.6581810409232269,0.645107595414196,0.6630113606501373,0.6903586644259505,0.6188388087421051,0.5482878728190816,0.49103347060810787,0.42254918064851665,0.450202039433222,0.5453899093046548,0.6349282692544493,0.6837628474377353,0.6290282906962759,0.5036431217875643,0.3539200689099289,0.20759390505476683,0.07202791967463673,0.03854336597668784,0.12229777711473755,0.26274834781671474,0.4126792734718894,0.5539477964910127,0.6772988149914423,0.7598614267085253,0.7573612318071259,0.7750544558779584,0.7925462113820068,0.7771218460623639,0.7502125626591871,0.7848251080319781,0.7587075058598427,0.6692964318597117,0.5863223914555014,0.556610425400343,0.5595932890024597,0.5933838292621192,0.5898447957803503,0.6472863178645953,0.6504118059127921,0.6676319607421055,0.6666256177317593,0.680996090484197,0.6451866676643134,0.5898210911940684,0.5015434732644843,0.4900859888375595,0.4217021985691396,0.41924694147145036,0.48996371544977935,0.5841777503222985,0.6671598208952596,0.6840324035204421,0.6345000675236352,0.5851715215944142,0.4400034491450602,0.2972672154559852,0.14129312647728787,0.04335961757465512,0.11728810339252327,0.224776438156026,0.346389629218685,0.4878565628239744,0.6322792552549181,0.7410980183928095,0.7969484331157779,0.7692870360157755,0.8121657669319813,0.8367296364506918,0.8486978611751761,0.8331089563668632,0.8001690214183537,0.7222460416960361,0.6340652803571185,0.5738281708176318,0.601431662517586,0.6498739365971908,0.6982579966046454,0.6760228061890685,0.7269742486451789,0.7697426361044704,0.7430478611330953,0.7004420405755982,0.6357649455052505,0.582678052516592,0.48472054401668485,0.3881064682473214,0.40049848375444075,0.48532345043537584,0.5923371237065176,0.6594473999840331,0.6349490618698841,0.6158581366304969,0.48119247407775356,0.326033938784136,0.1833312595731318,0.037463010604483316,0.0,0.0650958871538041,0.19170177132569766,0.3434378382412273,0.47047229054558315,0.5891055739317155,0.7099008997325518,0.7543217071909045,0.7411574629563096,0.7462496128214444,0.780520129510955,0.7459704667190246,0.7065503358872185,0.7724240032614316,0.7288100762522021,0.6521812885376619,0.5572651403698656,0.5308847005779826,0.5894188906569773,0.6311785026046524,0.6068569598262545,0.6359667731588896,0.6821942400675232,0.6369314139680222,HB
0.9126358014162985,0.8423570631881068,0.7927142815263166,0.737422047963169,0.7294844819127588,0.7587191508067141,0.7670864012920788,0.7780203551398857,0.7649164525326408,0.7197915130618673,0.6654515063155135,0.6686648712524992,0.7267704768188485,0.7786850017696729,0.8193638430966943,0.8375505270243335,0.7727832289379131,0.6802020835372005,0.5813002172462018,0.4863829523566203,0.391888915848676,0.30993565898327047,0.2857512323157583,0.37277054580555613,0.47196528723454034,0.567042519639861,0.6675717166360005,0.7644807743379098,0.8593138828747928,0.9358437319691817,0.9349651981480593,0.8650986028768473,0.8169342694788346,0.7610306143965517,0.7558572227145155,0.7897593394751483,0.7943926847753997,0.8099425517194927,0.815390624563306,0.7853166753511542,0.7331965392698085,0.7143323438649514,0.7662381816646544,0.8163674087966606,0.854652570384602,0.884479172799649,0.8361864137528463,0.7456833396686005,0.6502656376040854,0.5552105215598508,0.4552763600089651,0.36228273920590537,0.3285445640050426,0.41205453879898224,0.5068499762978227,0.6065419302042874,0.7078533097266091,0.8091026417561615,0.906390353656239,0.9763301088712344,0.9428928200427187,0.8699887711111851,0.8203915994439448,0.7651670528490124,0.770900848262104,0.7972115334318186,0.8082730347645106,0.8152022551957425,0.7926035108925626,0.7419028954391071,0.7087328560364128,0.7487694443009896,0.8047030124439587,0.8483275933459531,0.8939349072789822,0.8841713269794229,0.8014411244045758,0.7076486161502307,0.6080028000233186,0.5067404925101251,0.4155703611279358,0.4261248451132169,0.5213700804557682,0.6162207233231853,0.7158989410210173,0.8132052648737782,0.9092882584353494,0.9959864383614045,1.0,0.9235402050593462,0.8670004925283084,0.8115090787654378,0.7875910638749433,0.8265892693780452,0.8435997598103602,0.8604432624232088,0.8657862519462853,0.8398520599034773,0.789396883677044,0.7532566696643785,0.778301003697289,0.8016752259817714,0.8405412727229473,0.8652129685080032,0.8075106303906505,0.7244879737495336,0.6278025254459008,0.5330056896381339,0.434110782624594,0.35479875542297123,0.388949504050194,0.4857004390816615,0.5809688971871354,0.6813400448074292,0.77681646587541,0.8728555736947357,0.9546492743944388,0.945432371015603,0.8782908988847047,0.8313135318941651,0.7710810735614229,0.7770686931343751,0.8287453134093747,0.84801234779902,0.7793905791868718,0.6991258749633391,0.6349378963856227,0.5477957237058273,0.49447019835963624,0.41108073514528076,0.31437269591525285,0.2136244155223631,0.11839840798331036,0.040574699085075716,0.06780508305206645,0.15703860488971233,0.2551810783182804,0.3564545486389197,0.45755870632608264,0.553854963940654,0.6506126818709741,0.7445850417741664,0.8115624782259945,0.7929140977321985,0.7589238523243251,0.7329034863982467,0.7297032546103106,0.7757009220231348,0.8235179055432882,0.8352836647540289,0.8199410092991655,0.8045967155649789,0.7600579454889493,0.7526506519083149,0.81186933074332,0.8597608550943501,0.8980709178214186,0.8390588313738019,0.7449432584120781,0.6451517709939669,0.5473192210316633,0.451185996461579,0.3501334773804543,0.25101097504597203,0.15647698205880445,0.07260054403327898,0.06512372256757126,0.15167939672366415,0.2465230928670361,0.3377648885518618,0.4236831318571648,0.5202760270759164,0.6160726803153551,0.7135197138574352,0.8051486658673099,0.8512507872406656,0.8186562355383695,0.773448127854959,0.7148388683480171,0.670732615791696,0.6857499828388258,0.7407238123830666,0.7844126468716259,0.7886507066962316,0.7773699143236747,0.7537246816204226,0.7187734176905836,0.7480158442609883,0.8081203872284142,0.8439888086608491,0.7980562013995594,0.7027145732376845,0.6061451990156501,0.5053583874095682,0.40966656001067125,0.31130726188461066,0.2114268062261171,0.11701283605124435,0.04716192257352647,0.0954261311205572,0.18690516465551743,0.2839599664971133,0.37872951596731985,0.4785166272921757,0.5740998128044945,0.6707806456902974,0.7540925634348454,0.8282434494760511,0.8243362203787743,0.786751239249776,0.732157232790805,0.6835832981012842,0.6961335126982704,0.7497577529422821,0.7862986490455455,0.780647575351529,0.7692103687036478,0.7509177076166309,0.7084765282240117,0.7190359251568472,0.7798971348685653,0.8246313430435266,0.8372502668556039,0.7533916850137279,0.6586687739302797,0.5585644764710078,0.45810135130902996,0.3632005479402127,0.2636248692864718,0.1654683392275822,0.07031808148080043,0.0,0.042496372508002644,0.13455528387445725,0.2331533348188407,0.32797085695933337,0.42788163322119876,0.5291818053490296,0.628522208636352,0.7226230703566481,0.791882281621304,0.7758964983806556,0.7324831384283852,0.6730710422640549,0.6236810102852985,0.6352902246935672,0.68995310314986,0.7392774470961578,0.7519853603953746,0.7431187695292634,0.729761340199838,0.690478340172797,0.6950170621345055,0.7528800084990095,0.7954837808265147,HB
0.7430377128719576,0.8428583115605996,0.904093836944114,0.9321834611552782,0.9304000130024961,0.8810147244464495,0.8047409990331409,0.7174618535702968,0.564068168554654,0.4553090522205969,0.5610522317541435,0.6967911256883466,0.769957379020608,0.7688600099123337,0.7638926337570493,0.7656267731642985,0.7655932270199757,0.7775800849340277,0.7892496492095717,0.7880132496224577,0.7154487703010051,0.6124528969069982,0.5900474429268123,0.6850254728466827,0.7929083439173863,0.9032228354310594,0.9617279722548484,0.9596244563479943,0.9143532585099305,0.8595090876115328,0.7531293593346287,0.5961863619908399,0.43736869743649054,0.4212519382632398,0.5645213218693859,0.705599281844393,0.8171249311709858,0.8352498354927627,0.8230058354015672,0.7938006470800221,0.7017842237115528,0.7169759874502133,0.8207409642230119,0.9095363169353017,0.9641735774238058,0.9520679060527555,0.8966351870174871,0.8350810875347521,0.7894139103005204,0.6500699306071609,0.49952993372409926,0.513573660116561,0.6552018088499332,0.7655899026043103,0.8243951108138323,0.8169222066405823,0.7572187945657451,0.6898552149343877,0.5846365048073028,0.5220117159915882,0.6134522477549358,0.7133964214282469,0.8000940825468841,0.8556609170806664,0.8914544441594017,0.8956367536131951,0.8481349155745721,0.7230172269208928,0.569400756183613,0.503861487201926,0.6180839150929063,0.7340267939279088,0.8019419614083376,0.8106110952724719,0.7653682700687061,0.7139210649055525,0.6676270901777754,0.7163025707973083,0.7863696474495936,0.8169352076302361,0.8743229580312879,0.9256658951088954,0.8929303153995716,0.7836111303499318,0.672753046890652,0.5170385335796337,0.3521491500923264,0.2909277590713546,0.42912381824792645,0.5821932427622998,0.6731622431001179,0.7411076433986072,0.7933778119942372,0.7868283386761141,0.7365947572757956,0.7418961545909428,0.7063639035680835,0.6454719508180413,0.6929665879835558,0.7904933033476769,0.8477389605448287,0.8377967816208458,0.7949733396742009,0.7464678581975028,0.7240946377558983,0.6027906303179003,0.4437832612847745,0.40901252331869964,0.5434452357500397,0.6032402359207709,0.5939236195356892,0.6740200111883357,0.7636736852193668,0.8737600832593766,0.9812070858101749,0.9999999999999996,0.90336868418856,0.8093586111848983,0.7252456240250358,0.7290153239134987,0.8316942694727696,0.9378048628079232,0.9850941635444586,0.9175611637322212,0.8541469338235372,0.7511813600777404,0.6416166026962293,0.5913031964584028,0.647662654072501,0.7430623738406026,0.8317115951895393,0.8262497776751245,0.7328768546688251,0.6138225539628457,0.5387886195282854,0.4832612882593117,0.4540274351452589,0.32163980976143014,0.18565119208672565,0.15840568933901134,0.28239754289011243,0.431485448160696,0.5708750597149339,0.6332281385353355,0.678880221499083,0.7052762346698604,0.6973830529724778,0.6220708572286733,0.5262985996762573,0.5003381625790166,0.5918202074798713,0.6183495423399612,0.6218177087399037,0.6621308619526505,0.6840011723533705,0.6307719526125806,0.5558320989042733,0.4418927700805386,0.27897507791314125,0.10671681479874895,0.0,0.0805371063746283,0.21916634495451648,0.380608907196454,0.5508463715218741,0.6899756617642772,0.7823975234915861,0.767350986109196,0.7192526380669828,0.6810818452173586,0.6073538525247346,0.5215180018658931,0.5473092437154388,0.6157152301104127,0.6648934546420722,0.6957668819574665,0.657585486959317,0.5312945612184303,0.3881665617090939,0.2750121433703643,0.3200340613418384,0.4613081190040904,0.6329997115880741,0.7424855250430293,0.7851576653836889,0.7489917859308046,0.7039599155214336,0.618299665242708,0.5094012100863989,0.4095017175545945,0.42519717198946205,0.5233949531218323,0.6249280329846294,0.680917539587583,0.6722395340811995,0.5693919106996375,0.4123937273348415,0.25145360427573804,0.14024108690710912,0.20041273366080903,0.3558287193544314,0.5247445148575145,0.6740376023035162,0.751858482869364,0.7990320659758923,0.8071529078467337,0.8385596057000222,0.773822256238542,0.6716455965450998,0.5851842807986452,0.5744233183260179,0.6571525592403007,0.7032097446431638,0.7258409572528453,0.668437204652522,0.5207721878271676,0.3650281639520263,0.20187858926571156,0.08602631463404897,0.13732556823643316,0.2834108768211441,0.44401650893430444,0.6217101867473427,0.7300637476624598,0.8027500576543809,0.8368638821092236,0.8188067700737558,0.726061020473558,0.6116456937429962,0.5114786163443452,0.46312921605957813,0.533213709494802,0.6364382652868925,0.6741811025880655,0.6481860050207797,0.6655940083568832,0.6599542021329223,0.6466085285071226,0.6683431931633934,0.6711387262969359,0.6186585050959388,0.48060564159934005,0.3526560497926554,0.21755345805035775,0.2267638119521158,0.35764173683403433,0.5113347611907044,0.6592527027352042,0.7169153631765703,0.7882168254203585,0.8253136854670537,0.8008203449702909,0.7566084525171601,0.7048937899054084,0.6168667926399887,HB
0.7281030706738445,0.8200630671974709,0.844312560446498,0.7584207522070843,0.6398488501539266,0.5510473846844501,0.5933818053684692,0.7013898162447809,0.7990534390274098,0.8771320786403396,0.9212311689039119,0.860787013055007,0.7332292778520375,0.5887076184515174,0.6029725535247077,0.7635036510778477,0.9074654684199626,0.9419666062392951,0.8545869404796327,0.8200469013787468,0.9037864892854941,0.9694940772624352,0.9355444270047482,0.8267908464477238,0.728504446168615,0.7332833185473673,0.8362172263265015,0.924743789338931,0.9951727249140863,1.0,0.9017750189927467,0.7566726656742118,0.6366178677557515,0.7212593875285633,0.8814566431077555,0.98995960681235,0.9383043589873861,0.8328640308412134,0.7652946766261182,0.8198577412666306,0.8748412864137287,0.8247421006872115,0.7085428785616403,0.6179369727840127,0.6663981884857342,0.7741403289148097,0.8658376911699603,0.9282546548695803,0.943158624778401,0.8550654607021952,0.7052536765153294,0.545412874552412,0.5348567784433396,0.7030370654720959,0.8604578594704866,0.8981008210596135,0.8094237853251949,0.7005883535584876,0.6770839416974677,0.755387771500327,0.7849002390124054,0.7107871705129232,0.6039533889690301,0.5421351402598211,0.6202559075065088,0.7362552019315656,0.8299053904837232,0.9044128716820636,0.9488586885206107,0.8707491624902266,0.7160255017374229,0.5518466144153948,0.4737512885122195,0.607570909446078,0.7751322503770357,0.9310218262624783,0.9658098212499895,0.8754191725845981,0.7763890971859206,0.7337245279981297,0.8175748156339964,0.8479220570499875,0.7696134380276449,0.6531579120231532,0.5538508536722699,0.5877465422643922,0.7004492463977479,0.8017023136587187,0.8902036978948518,0.9427420096444972,0.9071121836389082,0.7834038905226515,0.6226479604395392,0.47941641398003076,0.5361657314372894,0.7001937927579136,0.8624784265899237,0.9354261183815793,0.8614579666113635,0.7378183016648561,0.6684965952247168,0.7448662434772242,0.8253276959512665,0.8002706956656525,0.6987658284817417,0.5817745612208514,0.5282508711460379,0.6149780902229685,0.7159497300240134,0.8085738789891921,0.8620686562393187,0.9035440702060562,0.8194824975725119,0.6897820412364788,0.544665336674155,0.3871461140200805,0.2238776271704923,0.06356934199347997,0.0,0.1307830642244343,0.2512640914006763,0.3695907052441547,0.5377940505547434,0.6603695513062462,0.7773727545640914,0.7969812683942825,0.733512836040652,0.6344767899968082,0.5256266546442911,0.4466461176131089,0.48834990423726854,0.5965713233925145,0.710947094745277,0.7344136956271718,0.643447638634449,0.5776203878869111,0.6395839689531782,0.7633217800045755,0.8156807000074497,0.6972977781858383,0.5307761281375201,0.34979130924996316,0.17085950942908434,0.030317834883883066,0.07210516060402705,0.231158894642284,0.39395519317407146,0.5624092145279724,0.7257940069729494,0.8532762362138291,0.8556394482631737,0.7718981782615653,0.6713664553644345,0.5614074069132267,0.4543270817279321,0.47383003774470156,0.5861050712429212,0.7022566087647091,0.7707027002674889,0.7119470921914326,0.6329465389100775,0.6554298723223986,0.7666193189888744,0.8494068628461342,0.7796414225299633,0.6155523766800708,0.45356707433950705,0.3096028405743816,0.13962812290649795,0.019438009491916652,0.09975748763107983,0.2638270215150862,0.4407782462816341,0.6098289566568647,0.7730253733045545,0.8593877117721558,0.8093927957286735,0.7277812920531783,0.6159105213074283,0.5032591115262814,0.43999268245941536,0.5101088828736957,0.626245418886453,0.7095608013922607,0.6683276039378989,0.5936741042358453,0.5980102941759089,0.7004480772399737,0.7988463272784396,0.7442188047546092,0.6050703202051886,0.44020343305046694,0.2716569376766813,0.11360703039144404,0.11227380439130741,0.26522816408523564,0.4276968571407602,0.5938963474410484,0.752499206135699,0.8605834909250594,0.8441484424903423,0.7744445964501026,0.6741806881187289,0.5624372068673527,0.5273190086766797,0.5954611877990059,0.7243675796187676,0.8005978962743514,0.7430758007538723,0.6596268962897831,0.6946665164133194,0.7899151794839128,0.8619653626818957,0.7547117841852575,0.5850272138679986,0.4192904435500324,0.25579015772015357,0.22043070600040782,0.36444953608540764,0.5283811756043812,0.6883286863691573,0.8456257904303861,0.9225209000594892,0.8788463632050934,0.7954043004792006,0.6897838796692728,0.6100774522600085,0.6419581574249129,0.7519915668328538,0.8477387547527484,0.8521646404944292,0.7701713690125289,0.7109395653326671,0.7709446429322546,0.8560543909767362,0.7804519201724545,0.6165644599143074,0.4513514477025491,0.29208705572090476,0.19384367477754028,0.3047533608948303,0.468272640286131,0.624912444787018,0.7568912715050775,0.8263342036408456,0.7831529167474747,0.6946122354332283,0.5884800875323264,0.4833969295822347,0.47900633161636774,0.5725302013719173,0.6861064819184985,0.7701467964638251,0.7087278118731484,0.6148327090502463,HB
0.35161749257570096,0.34600689744434177,0.3460106535748322,0.34093832070345087,0.3367947858012139,0.33288491258331265,0.30433543620970505,0.2674873767192194,0.22464854002208323,0.1750608515669566,0.12086273054552865,0.0698929336970141,0.036635032809115065,0.0704489073456932,0.12133380373301728,0.16817221779337133,0.2115432608113541,0.259916670923658,0.31422308015470635,0.36850271005649615,0.42531391468602275,0.48180756016132387,0.5393193880161484,0.5978021982941091,0.6580928624289897,0.7209904216890357,0.7824442263304654,0.8435037235798513,0.9033177144841888,0.9595208775411748,1.0,0.974897379357633,0.913607206963964,0.8537782246905343,0.7921340554521143,0.7293329214442617,0.6662320481773933,0.6047623704638945,0.545651341671272,0.48886769591489543,0.4319135237045064,0.3782418683421318,0.3236841349582762,0.2740202008286847,0.22424036276075854,0.17693127851702473,0.17863004522425463,0.22437070518598867,0.2673235525694122,0.3062841348831069,0.34104749332187634,0.3761302716972077,0.43221579349503525,0.49806648342883,0.5595600932524074,0.6209797904547987,0.6835858716659622,0.7449789484166951,0.8066596131443096,0.84399722255507,0.8116334391022222,0.7575529268384136,0.6927814327546864,0.6306671721132449,0.567381932809681,0.5073045047257705,0.44960450258117035,0.39808547396936067,0.36971621951117184,0.3770014363179863,0.3880161039789205,0.37790348874307167,0.3513024024754119,0.330809128208017,0.3548567665194069,0.38320256467924785,0.4074632511195426,0.42043597274037636,0.42759219435977736,0.39966783145326246,0.33757795066788887,0.30154439129756083,0.3411941530019691,0.395845714713311,0.4381503154699635,0.45185782947752395,0.4363541633163479,0.4107324643287109,0.42192638390184345,0.4544795430430306,0.48086085473943174,0.49323028066138686,0.47603191990832894,0.43840130148548084,0.39760144350440885,0.34553514382483197,0.3263957738839187,0.36840540633015006,0.4211619069990076,0.45458825217183985,0.44371617463182833,0.42346357409224367,0.43687249464898725,0.43966337601714023,0.4336928344446258,0.42772098498614763,0.3985441573609234,0.3610844763037866,0.3446650421969195,0.32668956708493924,0.3035462534023632,0.28320758693504233,0.2503507122112041,0.2096831489505564,0.18642877733117524,0.2363680806464512,0.27497986178531697,0.28843001152455816,0.30388309166205274,0.3346435312684921,0.3651659322456384,0.38338737754564245,0.4141996887502135,0.45039045554137314,0.4606683241255376,0.44337322154158243,0.41016115045636425,0.3718609253175793,0.36646427162171946,0.39882837577467223,0.4241334941842152,0.41961966507767334,0.3842537373355981,0.3548474718940251,0.3356113175855535,0.30385058717951696,0.27322709473277484,0.2583432717929912,0.24616395973609784,0.2119182868268379,0.15569198771138415,0.12561575218259946,0.1570583295746628,0.20680874940584215,0.24095972325916448,0.2630337993327234,0.28844170986947004,0.3104215604745013,0.323533702057194,0.35388249313802467,0.3876231208776879,0.3967504092314402,0.406537372946145,0.41021697277525115,0.38992090633487675,0.39062833025415467,0.4189872190668835,0.39998186976697436,0.34518138409278065,0.2903940849269062,0.27869751832906875,0.3256216587648719,0.3773639338853001,0.4171610191389037,0.4542908982569891,0.4579793361847464,0.43935343545345806,0.40784415535894913,0.3760297183425001,0.37987473510971403,0.40577119217562263,0.4182433137882384,0.3857721114127919,0.3308812121827991,0.27364124253555033,0.2214453674809984,0.2227796644368525,0.2769241724463132,0.3303154165379554,0.37297796080948054,0.38484764645970704,0.3746293917455179,0.3501341418072448,0.3188386993488139,0.29473077396755243,0.3138521744122367,0.3453274096759005,0.3550579620626777,0.34269539848158814,0.34230145518992305,0.3722601930749385,0.4218018873766276,0.482220134403438,0.5436487289764356,0.6069357641563886,0.6688915414505159,0.7296452410104579,0.7487875673196263,0.695262378655632,0.6330159247714202,0.5716242302359695,0.5090347762202163,0.4476280808866018,0.38882432283184776,0.33997130628012306,0.3065995844492435,0.2712669166898489,0.22931957257845847,0.1836480028368015,0.14154915219913822,0.13485305787235757,0.1738721590751343,0.22381322647133217,0.2758218216475341,0.32585414924230105,0.3777401708686905,0.43253235270626655,0.48984710128319375,0.5469736012081414,0.6069002052891479,0.6695515319117329,0.736194000650731,0.8002850968599697,0.8610779715030017,0.9084807198271685,0.8826140976291927,0.8230920084300404,0.7616945105784005,0.7022471595644642,0.6449775534521904,0.5958037724517968,0.5385385525270012,0.47608129514737363,0.41852230837484683,0.3628304258837436,0.30762565365145567,0.2535904041218988,0.2083630966645189,0.16086951350704282,0.11327987690449992,0.0635814547654373,0.017146525434288074,0.0,0.034223889175404976,0.08688483180560391,0.14345816124026944,0.19266705517940053,0.23647666521707622,0.2751431345464548,0.29899046944715124,0.3057991740642563,0.3137698076257378,0.314088874517946,0.3135711692584837,0.32075602188445274,HB
0.9410130400128639,0.9151395202529032,0.8244130329730709,0.7240848373969403,0.6250161781203983,0.5259211548574801,0.42896262889247316,0.43891333832797763,0.5387135449094523,0.6387323149906029,0.7411700878262059,0.8411296491370269,0.9386641154475036,0.988326148229452,0.9444503255548803,0.8868275265497118,0.822900711495561,0.8294727468189033,0.8791183653231204,0.9131694201497805,0.9171001197742928,0.9140498858036655,0.8914011712037774,0.8560665096075534,0.8103953789163355,0.8272326780028135,0.8735181606163355,0.9130371392753541,0.930876585297142,0.9413216490585282,0.9366123393683835,0.8693520072987876,0.7881166151248707,0.6929877012428628,0.5886270775209154,0.4885845086125168,0.3890745266532235,0.39249444867417915,0.4891611358221307,0.5910195715642378,0.6982921070927622,0.8051577388600123,0.8995045305550927,0.9399197227696073,0.9053803103368302,0.8420927283631113,0.7904854606374555,0.8245010009813044,0.8833811066949225,0.9277444053481309,0.9297149033017306,0.9147478938791646,0.8940048768583305,0.864751757391332,0.8446815771917279,0.8842086301825375,0.9333086180719842,0.9631996405526259,0.9636663772843944,0.9715882038827471,0.971139589855294,0.9093295595217686,0.8128732029167304,0.7108891687321307,0.6110933805710633,0.509107840829138,0.4553375769753466,0.5326290238145744,0.6377124674455247,0.7367947958792295,0.8354373243720669,0.9327433842056149,0.9999999999999999,0.9656027252612566,0.9079287654216243,0.8381505676123328,0.8287459180331403,0.8797652889712947,0.917910222469729,0.9171597075968733,0.900933343253339,0.8915007110130008,0.8666593382196485,0.8263222255297086,0.8186209069706084,0.8642981973523857,0.9062047695033458,0.9298262320571601,0.9459287357883187,0.9579503330322413,0.9265261448380305,0.834761909863354,0.7346801454742552,0.6344328808681016,0.5354174233783132,0.5254783055427409,0.6217836555206665,0.7211705970674543,0.8204526102029276,0.917150423574593,0.9782788082342849,0.9460855296557208,0.8919730967515241,0.8234250910172564,0.8212626228711911,0.8712302249885909,0.916385091856211,0.9265195812151444,0.9071562122487619,0.8771016271697268,0.832171913758032,0.806477665497234,0.8403428721624328,0.8795995151483341,0.8755217620242989,0.8296243160862032,0.7851024612665777,0.7303311143223113,0.6345688672399542,0.5722913514204583,0.6048860200344975,0.7000855175927564,0.7420571825709822,0.771434466228002,0.8171052528346924,0.8528139816955945,0.867546277757831,0.854224027803924,0.8036438980828101,0.7556112929881528,0.7444337713885859,0.8071955548130537,0.869359348649355,0.838550951891012,0.7441322693423206,0.6428809821416396,0.5425638513732606,0.43574489703555963,0.3330815178082901,0.2312646694723436,0.12642857625333626,0.036786094905119526,0.04164063868812051,0.13728543965729678,0.23794810656793575,0.34397648799617697,0.44371777814777513,0.5485146710635781,0.6485645537956223,0.7512899990618965,0.8478101612379255,0.8932443584560886,0.8797138639276006,0.8605684807423665,0.8269310854826873,0.7790311862410358,0.7460951778166421,0.7746288144140124,0.8174587843728148,0.8351801695330537,0.8545277414325115,0.8646049652329825,0.8371128789577386,0.7852526024345284,0.7525112482799864,0.7970067511835807,0.8723439724845422,0.8866251738370431,0.8075604397346082,0.7073626562066254,0.6002953790873548,0.4928375100303416,0.3864416495327262,0.2867455803068911,0.1818896565175886,0.08217627826177387,0.0,0.033763150533403175,0.1332977095931277,0.23446103781220662,0.34141589252483795,0.443018313094507,0.545792807335851,0.6481151403291928,0.748831047562139,0.8468450732796985,0.9057063260463399,0.9025839238167598,0.9028653508540229,0.8910989623211448,0.8459528269430096,0.7917772894324347,0.7820875388902234,0.8228396615370491,0.8551555264935679,0.8673236676465573,0.8728161550385355,0.8385187195261455,0.7788828282425105,0.7259055779325597,0.7328276676073303,0.8038963301011789,0.8570846862895541,0.8626432666025933,0.7845481540480891,0.6830029815562381,0.5817987033982263,0.4788488940496932,0.3776725816517764,0.27562087199622065,0.1735384395135412,0.08134258561982155,0.10101639483014602,0.19832637324966484,0.2992174748706856,0.4023664183104315,0.5033773301644925,0.606685375179094,0.7084489121058567,0.8081173914806953,0.869044981456263,0.8693333777679201,0.8527277205055527,0.8150052215309561,0.7704222588431465,0.7391915389209677,0.7735467683047667,0.8227089530936212,0.8486669980499139,0.861919971268763,0.8581270706626872,0.8414683401556095,0.7924069050080152,0.7586131947815716,0.7915774861354857,0.8641276331263058,0.8720795270758509,0.7895852827983684,0.6892516624228479,0.5857250481291493,0.4783262068033921,0.37169185114903625,0.27180457260032986,0.16685778352306235,0.0666326186314583,0.017720010096648142,0.08870870209936321,0.194419572553166,0.29506116313765174,0.39907369558613637,0.5044001216587132,0.6034887978953999,0.7023182366774369,0.8002989733483193,0.8705182654277411,HB
0.5709291305794562,0.6403665031271348,0.678842107980818,0.6944606190144396,0.6714704607657618,0.626107567948706,0.6052102318500334,0.6419589757481736,0.7120663843330468,0.7665080761505729,0.8072255709275851,0.8188582758876755,0.8451670790682955,0.9308503222160271,0.9184594789138978,0.8142510910270411,0.6815274715669979,0.5479388498740287,0.49999012337617366,0.6149204000262931,0.7230001525974199,0.8043782466017735,0.8243725490523035,0.8118233499406817,0.750928818235368,0.6594281698336486,0.6067473181948464,0.6452843460035029,0.7154177596451379,0.7633346049902974,0.7934512570795285,0.7683209455505957,0.7306288617820731,0.6988593346573397,0.7313231236163689,0.7879148079123901,0.8374088116497673,0.8495655087681087,0.8749971589370142,0.9303365196136655,1.0,0.9421162497218347,0.8109199228640289,0.6704141129995871,0.5351083284263582,0.4479780978638388,0.5443651127793458,0.6677232252780567,0.7741753501231696,0.8607422859875702,0.8556220260681497,0.811954177003479,0.7382040050526442,0.6480750465707246,0.6037737855466574,0.6535749699618423,0.7121373047454855,0.7393998465058647,0.7351425648437311,0.685857676160273,0.6304781859280819,0.6293171186263331,0.6937492581663212,0.7321944684121715,0.7547124252393469,0.7853439959907242,0.8560845682240634,0.8662920139566692,0.7600156800925673,0.6292883840648078,0.4888929873290677,0.40246727230139845,0.49050564853557077,0.614100975640198,0.7224716248055447,0.776218057407152,0.770683398969763,0.7179818812778831,0.645085449073314,0.5675205844439222,0.5937364280009829,0.6762710792058169,0.7416614632727678,0.7852676602992323,0.7957740570769829,0.7636408019360763,0.7042181336399498,0.6723539634341247,0.7227110321845243,0.7824186613572737,0.8321736145270848,0.8458641781665364,0.8590197203175771,0.9187630025006261,0.9645239913335146,0.8764433867078876,0.7413366928493255,0.602356867456034,0.4577693032918937,0.4391254328382419,0.5472922456679661,0.6568138734786144,0.707031931695508,0.7073300151207733,0.713088296066001,0.670217851855901,0.5772403901832095,0.5108648219021701,0.5476356502749757,0.6313792579411532,0.6977821624351401,0.7206647194675488,0.6873626666103072,0.6189828344253416,0.5677266125908931,0.5497252383163516,0.5896190345485848,0.6463403040008382,0.6945747294608751,0.7151752550374755,0.7010947480838432,0.6217668674972572,0.5866240180463773,0.5593621855262878,0.5113212556494022,0.4513889447022015,0.4275806479182389,0.45467397842906054,0.5097445785965369,0.5748758772797733,0.6017356242454466,0.5610661595304327,0.4759005494698427,0.42395352501869166,0.4141131550325938,0.4870746315118031,0.5769430418945296,0.5943314909611712,0.5769332962361058,0.5043430904143955,0.3863988323466261,0.2541517135399607,0.11865665411374948,0.0,0.02304673103936583,0.15761278115533983,0.29953503172283735,0.43944328932031107,0.5755406458711927,0.7065692304228364,0.80936455732791,0.7551854022376263,0.724141177382903,0.7156035257070794,0.6974576090677655,0.6637549454885119,0.6021528455420646,0.5609329684172959,0.5685199350230734,0.6218243932973069,0.6707202976498468,0.6651234212176074,0.6210763174395368,0.5438132602135544,0.47333935066536714,0.42895277016687494,0.4906845352102698,0.5804716921413782,0.6440818046347583,0.6763813019246805,0.6293095923115719,0.5295975826606862,0.4022814197819611,0.25519126073499354,0.1192302865376429,0.023847192957625385,0.08542305528750616,0.21836607415164844,0.35963702858569535,0.4983293922786318,0.6333554629238578,0.7381767318210173,0.6929930767042727,0.637603957479481,0.615670060695924,0.593089083117718,0.5316892637453585,0.4907143303560839,0.5143750611291331,0.5708367091360556,0.6187460470500392,0.6311545388868485,0.6049475929241148,0.5461165897576072,0.49514405127079053,0.48629052153884267,0.5598534454197215,0.6527254032154208,0.7202056974186184,0.7459817762252037,0.6818665570126523,0.5633995623965777,0.43405354557178155,0.3007628676624665,0.16816730261948898,0.10961966203590157,0.2084519551874764,0.34402367578481474,0.48852239535669684,0.6245273500487811,0.771895518901212,0.8478685694727557,0.7743398866830495,0.7380536751912357,0.7169293470763849,0.6817602895004811,0.6333235313781751,0.5848886394027697,0.5944773989181278,0.6345040227611736,0.6675011426328195,0.6512086302962881,0.6026084704771986,0.5370624415480703,0.46378110338816336,0.46879938188922177,0.5462542824164678,0.6418802263686603,0.7014300458320886,0.7128676577563016,0.6553143577655764,0.5381519364312899,0.4115703574067342,0.2856023721487535,0.14747881426209952,0.027443714686655962,0.040323048383655635,0.17287767735217185,0.3112999006575339,0.460892900687921,0.5969362824289535,0.7344371877439886,0.777553432828292,0.7154785746294618,0.6874506491295724,0.6572736410507836,0.6167030649560492,0.546966803563127,0.49423168713921495,0.4963638314256089,0.5293935750992937,0.5701711472271431,0.5716662138567221,0.5254369476049874,0.4532633509171782,HB
0.31840226690800266,0.34274505166732205,0.3632016883237692,0.30902628903176277,0.2396702810802993,0.2605001984500761,0.33624354415187563,0.3938577355376225,0.4603797247162682,0.5521399404074938,0.6537073606664145,0.7599429523663073,0.8614603192614709,0.9510466075672419,0.9438269609062859,0.8495468173043736,0.744581293057152,0.639925046023395,0.5341508576181317,0.42578611043040193,0.33113960970110434,0.3468500665937013,0.40409926583419686,0.38380398557808726,0.3276892448471542,0.32898937171825504,0.3478570034784134,0.29340268165753014,0.2318407870389132,0.2629293267612357,0.33723464803970016,0.39709190296561125,0.46677590962317184,0.5610829850704953,0.6625363730213041,0.7640161230845026,0.8652694821285856,0.9638873413258691,1.0,0.9192990859219263,0.8151677573759515,0.7112047379002762,0.6036118784091373,0.49959000003390885,0.3938674108226259,0.3340956779666615,0.39888975122251247,0.43636718316040213,0.4014509022979931,0.34938935695803774,0.36827287360985994,0.3797912478070615,0.3208850428055021,0.260990054385579,0.3008540985394501,0.37267866623364476,0.4288861572149034,0.5031486926114737,0.5961978322344903,0.6895629787675384,0.7924133697306128,0.8971298203803446,0.983148992198154,0.9848869092068921,0.892626336364895,0.7875298211496948,0.6832775350293572,0.5770679617972605,0.4717042331727155,0.3950615402214279,0.42516127391069225,0.4196968369888139,0.36521251533010335,0.35294912194119266,0.38343536560922,0.3399424902231769,0.26830681590667105,0.2731553856275536,0.34386305698654596,0.3954803826540465,0.46368531076149244,0.5622374637555734,0.6646622179124011,0.7660590893523047,0.8665512468787278,0.959672155174301,0.9620791704122429,0.8696232882263453,0.7637562585254212,0.6553149381004624,0.5471133965771797,0.4428527481868201,0.35334536541484907,0.37149008580483045,0.38688577817655334,0.3387940736317112,0.3058089315295913,0.3387847872898986,0.31150285516064735,0.23769785287704093,0.21275350456707753,0.2759350947304624,0.3398402122822808,0.39967020716237944,0.4905419425377715,0.5905662070577204,0.6922325251529693,0.7935250689022406,0.8919009506479907,0.9335713561529511,0.8550581543354885,0.7519976712503782,0.6460252166351141,0.5423121849494357,0.43533699683294835,0.3452032013265247,0.34495478113812617,0.33051201541761377,0.31657184326640264,0.2647701125945662,0.2582042222850718,0.31239781419349777,0.2716282725626792,0.21336229700922993,0.20447761664721198,0.2577486967406172,0.30147058580256236,0.24801128538234152,0.14903757673303097,0.04912221528549077,0.0,0.07560320964505263,0.18313559082300446,0.28827084277055737,0.393642803844239,0.5020352739800307,0.6104976459021938,0.7154275615398913,0.7609594850134866,0.6876809235778971,0.5939174398371918,0.4935117827939133,0.40112107000203023,0.3362231844964094,0.2763424100642776,0.20323712719517872,0.18009184406510614,0.2410086204018148,0.30802670196026005,0.28932047251878124,0.26859695265198236,0.3246281682382439,0.351989736360784,0.2819024313949088,0.18163755406450477,0.08383787562838818,0.06670757108008474,0.15816923160130625,0.2643246222361314,0.37122437972902356,0.4751202497189262,0.5824630108527198,0.6862755014349982,0.785472371341867,0.7856974356267923,0.6902984573867004,0.5918046774635046,0.5005047930114175,0.4145280102765325,0.35958721254038295,0.30588305400308613,0.23572497670290504,0.22914226709183205,0.3004507856254419,0.3540760233312852,0.3241528322251679,0.3218894038005562,0.3805587338051779,0.3905851405705887,0.30933288788551394,0.20914725055792804,0.1095335686131399,0.08371050339215402,0.1716330229251376,0.27836529804204335,0.3857437647821462,0.48947036331019333,0.5965039915390407,0.7003129004853099,0.8030948157772835,0.8299818546029281,0.7428646605988065,0.6406187879677281,0.5385949673035832,0.4479843391339251,0.3876970280501564,0.3263878317559772,0.25203265206077274,0.23597962586337162,0.30231414936017287,0.35557202448242964,0.33059922403640596,0.3256508844580297,0.3818595952227497,0.38436445183574164,0.30147506585002737,0.20088170607961753,0.10435064510146563,0.09394687193377738,0.18858377503966928,0.2927478080311836,0.4005486550341708,0.5047400853614561,0.6112109352067854,0.7196693344947256,0.824052280589985,0.847577859269314,0.7588992772110246,0.6566079150541408,0.5554650987468779,0.46165608629623556,0.3892028920871724,0.33181352779451223,0.25602850880998673,0.19535881771628139,0.21970743847969343,0.2934793299338003,0.3197998138652798,0.2851378540931808,0.3152659276598051,0.36836340198270134,0.3389258463004785,0.24427248483861397,0.14231298526475544,0.05209892448368103,0.0712745056816706,0.17254273873809267,0.2790459621704713,0.3831618957433711,0.49074698687189766,0.5946713157394969,0.7013389017855509,0.7877912269753036,0.7511683743960642,0.6511663730109696,0.5497707287208369,0.45390286136092417,0.3847006792204022,0.3282446184364771,0.2532580201402854,0.20211896965781007,0.24553118910156935,0.3183339954170479,0.32364508879402987,0.28518984221168897,HB
0.6785667278642009,0.58309742102495,0.5527304866521008,0.6323847809256313,0.7037650522983663,0.7326153520927874,0.739948726027476,0.6947572328887701,0.6082692985431235,0.4893443500303438,0.40511453604908176,0.46674990295866037,0.5894281226744207,0.7030333940054834,0.7966230990480763,0.8645043956032565,0.9034084616293554,0.9694429506235451,0.9886620785223843,0.8665750007262774,0.7191673769735947,0.5862676770881503,0.6323764723629655,0.7649604587703669,0.8680474199299137,0.8609002907377987,0.7742124172608151,0.6787378596234368,0.6484180254235281,0.7251229547863667,0.7652963569479962,0.772834322196688,0.7342893835395734,0.7107185823730302,0.6204631491944443,0.5160961108276347,0.4209598084283379,0.4684454561766356,0.5786185292031081,0.6705126241374093,0.7575293379030379,0.8347127573309185,0.8656484999769085,0.9417697982443873,0.9999999999999996,0.9014665441821377,0.7549024142197758,0.6111738429126605,0.6095977084020308,0.7268602117307155,0.7733732515578753,0.7252474362651768,0.6347230220955518,0.5546797544013549,0.5683768824493272,0.6483847294245697,0.7036800070488938,0.7345074822028437,0.7254080984872053,0.6710209645547649,0.5789646935572907,0.4748279021666435,0.38746761591410683,0.43709676056874747,0.5486913986077901,0.6624828700807353,0.7405053993628439,0.7798190251286177,0.8120009014258525,0.8872448608375234,0.8817956689898674,0.7497491901353346,0.598921236289375,0.45907659313692806,0.46913001079696315,0.6113762833953067,0.7281034313427446,0.7474814968027204,0.6811296995705289,0.575255279259808,0.48730843178280736,0.5239888157456032,0.6200019331277291,0.6737056483694914,0.7212740953746,0.7038329807794317,0.6678874655946663,0.5705461795683755,0.45570497071770744,0.34244375346947065,0.34078930551700637,0.44645491461343934,0.5630238527060127,0.6744191349759294,0.7386037610358707,0.7753106808513008,0.8381678944700264,0.9100732073239954,0.8398297290872896,0.6946314117989836,0.5466891817930941,0.43453694498179196,0.5188518315164461,0.6556500161942416,0.7614695710871904,0.7619804820799962,0.6713293838778158,0.57303839642571,0.5509234549486002,0.6248609259576248,0.6792908191731568,0.71058473497121,0.7299947818399231,0.7054787634915192,0.6354228395458139,0.5267075528995502,0.4291810998745311,0.4372440464048344,0.5030328318565314,0.5132828950841279,0.41590814480142724,0.2833125043539577,0.17890446613569022,0.21057799795701815,0.3011696651363853,0.2853754391802239,0.18214856583869876,0.196268653907949,0.32998390071424,0.4710132755716292,0.5742061229360313,0.6361734830430725,0.6495568684895474,0.6151997102586018,0.5491040490957375,0.46385577654414467,0.44757145767048634,0.5312840269378021,0.6295615759579025,0.6556056724958834,0.5386302986064422,0.37991639715008363,0.23354035386352479,0.10309364235409957,0.00025979394414576973,0.05792510139033302,0.20504614315638703,0.34975156490992765,0.4990404481621695,0.6478660691107136,0.7438357617301903,0.7035081173784126,0.6740132986855731,0.6154244172766874,0.5200703594522631,0.3983385744246579,0.2856430863367807,0.22156244171952633,0.2938084642494352,0.4044984848959703,0.5159102614080173,0.5839258822136753,0.6107569953504606,0.5913833795588292,0.551422025432629,0.4559246884548034,0.39429582040785416,0.4441096511984983,0.5491297902352001,0.6372532657962382,0.5974468591048496,0.4572158662661616,0.308861025891519,0.15491580258360793,0.016974716617510044,0.0,0.13094647833663586,0.2792678819338388,0.42771971254969676,0.5865575932711757,0.7154535501672377,0.7187259857529367,0.6761215242470944,0.609923211052056,0.496369152043755,0.3848504798199004,0.2918328282711258,0.29810564957529184,0.4007577417597852,0.5044117453576549,0.603550488114224,0.6395645758328632,0.6514302979950037,0.6125095465069972,0.5207433204785183,0.45287503896162384,0.4952595163675264,0.581512998198511,0.6741475233591707,0.6735691462466389,0.5406848427639219,0.39167722689436113,0.2382065454173241,0.12993210174962222,0.19591131546639806,0.33909548267162615,0.48397520124261284,0.6311836523350651,0.7684562818580338,0.7922706165531639,0.7432169163302063,0.6782017601594452,0.5839356530141555,0.47254983922616356,0.36121283900643775,0.3129335483273872,0.39123444062015134,0.5040168720385476,0.6031614990213661,0.6638120779618397,0.6944651034454292,0.6859108640872047,0.6189122626424388,0.5455151141363879,0.5720945309102499,0.6654462459088313,0.7598992948087653,0.7618696571807861,0.6361302352089977,0.4791675204691743,0.32962390442314504,0.18381460089634016,0.15069454670602722,0.27448611493379627,0.4191600290503832,0.5662916947256673,0.7143960378841312,0.8368772818943482,0.8275504833835683,0.7801895359566315,0.7022452001034276,0.6003279782676025,0.4712539906571709,0.35908626478771133,0.30988332039405897,0.3833302945321644,0.49629756385723534,0.606668589764277,0.6636110099626644,0.6558816202418112,0.6174261829829493,0.5621061912631933,0.4760911944501647,0.4644782677056818,0.531974805017911,HB
0.5966217505349007,0.5355035958695309,0.4792102908188596,0.5361136072532147,0.5731374601026755,0.5400283743491654,0.5684365571031478,0.6588078219190296,0.7511042899668485,0.8354850713689008,0.8727297968864742,0.866240855827646,0.92212860576059,1.0,0.947209974761106,0.825390514938686,0.6990249110863749,0.5648441918784037,0.4298873990687966,0.3579454587674771,0.44618639566883544,0.5611917403293547,0.6469974201301665,0.6441300104663297,0.5719708789486515,0.5821791492577386,0.6370605206597415,0.6213768310791283,0.591614254954048,0.6544303292615332,0.7471571103551491,0.8372015104059023,0.9002290285974723,0.8885611505788567,0.8588001583183988,0.9196677930592196,0.9590646308607105,0.8660251270950794,0.7325271762631629,0.6030296699057467,0.4946384433939288,0.3872711318301669,0.3846729078541067,0.4890843841554169,0.5657720382253499,0.5449083226557097,0.4655384440494559,0.46539312562301927,0.5307626564178431,0.5344416969250523,0.5025352942755514,0.5570354964701694,0.6513457558899307,0.7456298794524421,0.8217662494877156,0.8412319164889079,0.861645280488573,0.9420056295260646,0.9963897648492073,0.9104881360648616,0.7858614259924317,0.6554679116351978,0.5284393751782557,0.3997247633018812,0.38146607963920487,0.4894725720174309,0.5952019403824651,0.6253842180875653,0.5658312126815539,0.5005218819896957,0.5413418495458293,0.5583061064337214,0.5146285750208786,0.5510875418689105,0.6440240013126619,0.741631254206331,0.8164745035795402,0.8517996781138004,0.8491977157587454,0.9064027340221523,0.9733073848698917,0.9033101432925954,0.7803123860901371,0.6484513343902187,0.5214788952468152,0.38808794573903094,0.3155181405207126,0.4033889930624397,0.5194605367870775,0.6008581043075236,0.5832466646942636,0.5000951473402486,0.4964390444722431,0.5606670796402584,0.5588859221473781,0.5395355433191333,0.6111186058166216,0.709625711610617,0.795965181674549,0.8595541521736121,0.8684213269684213,0.8814344339876992,0.9678659246667465,0.984450473643085,0.876763696600773,0.7504943065134619,0.6201363792818659,0.4931823742720445,0.37083847364782585,0.384521550881181,0.4997019365079933,0.6039302765772763,0.6226968250135405,0.5585456636258139,0.5095469308215006,0.5465989314243689,0.5397604694618008,0.44013698031591897,0.3321230216918998,0.3382965340772157,0.4162597516158182,0.37032722816850727,0.3158064313877491,0.3844078203975281,0.5044134673787002,0.5749577715438425,0.5395067014060724,0.4296243919365317,0.3138553140925613,0.1963522981895467,0.07464712520560823,0.0,0.06435994808522283,0.1784085853231696,0.2907323431092945,0.4245221562763102,0.553149800795981,0.6825584483379097,0.8053837288494012,0.8491845544393102,0.8148421260891108,0.8239930900650103,0.7928416130732829,0.7115636098122375,0.6176590678503682,0.5262286294141605,0.4870049447446596,0.5211261624379124,0.5047187545608014,0.4289724443409435,0.42777438236516074,0.5155584144429828,0.550441621367969,0.46013489039904054,0.3344885162670588,0.21143426230798212,0.08759676490756862,0.0016059250982283224,0.06261332245264284,0.1926924786371671,0.3197773324010542,0.45206331291529245,0.5793207089211618,0.7145045855160821,0.839046431509765,0.8446958498768709,0.8061754972326178,0.8029961137848121,0.7554042732050013,0.6692055631555225,0.5708696217071036,0.4837846686565297,0.46610300611413713,0.5082657083042295,0.481985003842458,0.42964213912532245,0.4764340405064531,0.5597074844572809,0.5535182163266725,0.4432217870379622,0.32379144163115825,0.1992681440986932,0.07794282876468395,0.01566347515553046,0.10274028670786839,0.2302706904283629,0.3613850535064338,0.4974974618406629,0.6336017982630295,0.7643375388072906,0.8622162631732619,0.8326941641477341,0.7977406358911878,0.7967080678768212,0.740290927741718,0.6493227977851208,0.5508113109907526,0.47075806103978435,0.4575624019261486,0.49330303812108856,0.4527182858033816,0.38367491793056874,0.4098173151958273,0.4979110928386723,0.511921021536101,0.41434135333344724,0.29434975641903116,0.17101721663844716,0.05450873724432115,0.02829089958447306,0.1440006404076466,0.2725712278150487,0.40385531954547527,0.5338880170900355,0.6621152954894942,0.7842662944946177,0.8263619841734213,0.8001543937150841,0.8379180270410522,0.8509325304108506,0.7784694315489333,0.6816232367113249,0.5935965974255053,0.5399588574392549,0.5703358642906471,0.5862767842697987,0.521274928254478,0.49672721099077055,0.568951953894111,0.6096892228130653,0.5265813448926873,0.41003470315394064,0.2883826720606273,0.16420752487181267,0.056851758788012186,0.08188263322520273,0.2021761584286179,0.33525829301597243,0.46314683645286636,0.5945122152220805,0.7216089140730233,0.8397819064432555,0.8424209365667386,0.8193347072565893,0.8248341696372439,0.7621128456677955,0.6670313595769306,0.5766365667425166,0.49898196001728223,0.4956587643095798,0.5130769255358536,0.4487961222999868,0.4153159948359948,0.4850067803120717,0.5471414730382962,HB
0.3833904713283829,0.4804290571288805,0.5789797350419168,0.6767550286348085,0.7657652630465477,0.8261171831787033,0.8378523096279409,0.8163018857635262,0.7972396739023302,0.8135473271470617,0.8151433036194575,0.8021604250272873,0.7763241524851336,0.7976823346694868,0.8478847255090645,0.8992514068865947,0.9231885531265833,0.9028941428720847,0.8568944663049392,0.7864954524819794,0.7002423942436073,0.6050790756787816,0.5070315489397208,0.4135171697864133,0.42960780194181547,0.5276847269197422,0.622640451448375,0.7051841114864894,0.720730262894409,0.7009219139970577,0.7132183395856415,0.7175017773498844,0.6773945236571048,0.6325230418332741,0.635883479249624,0.6938701563457006,0.7609425113599237,0.8383526016369487,0.9027588357336023,0.9515154703065707,0.9882043898923136,0.9887968519398997,1.0,0.9491639048136356,0.8639468115117861,0.7657750218016859,0.6616545975473458,0.5624232745567335,0.4725922847588697,0.49426692401174477,0.5940532270750283,0.6935263635406652,0.7910613337758465,0.8673230751338128,0.855971968992995,0.7657206397447416,0.6993693776433525,0.6765920465692312,0.6686189392643107,0.7031980521314172,0.7210907280566643,0.7518180523501998,0.7570748660419655,0.7569900132641134,0.7704039528407836,0.7958871059313499,0.8074910682028706,0.7875970465016198,0.7760558413721181,0.7507052083616657,0.7257314563688535,0.7682388439349719,0.8259832715202813,0.8568536613234188,0.8312965017325955,0.8184290646522046,0.7956606687204903,0.7325291752191028,0.6453661316660466,0.5524164406009824,0.45628950630793574,0.35611928246809965,0.2652290327119937,0.2819170943883986,0.3842979484878837,0.48338718623435284,0.5815804421817523,0.669380333435666,0.6768280914114333,0.674514792149937,0.7028569627598074,0.7311588162854612,0.7341058266948957,0.7045528630553943,0.6816101876182312,0.6749764050919271,0.7031282369015248,0.76081580694348,0.823997681154419,0.8524108190380826,0.8375221293453374,0.8646294212242704,0.8576271292042752,0.7964779292784585,0.7108214318126389,0.6287667500506158,0.5324660948355147,0.43032994100700805,0.3377364811527357,0.33881300616967724,0.43579939208714413,0.5284959203515334,0.6173996202075762,0.7098738141504342,0.7825491303502465,0.7783542254916518,0.7833544999537554,0.807530790582228,0.8096815897140615,0.7733882962531027,0.7547862564611449,0.7367844629521874,0.7221740779768699,0.7217706821471508,0.6501188256929396,0.5522773401653889,0.4478683475039016,0.34733083162547773,0.2447531871393276,0.14587805545876376,0.06039230522314343,0.07528308132698491,0.16856222788590447,0.26938661612474113,0.3769576297941437,0.4815186818904864,0.5796078505172895,0.6742658752400572,0.7602926048371952,0.8090622805374488,0.7909718800622452,0.79319481227378,0.798392439600561,0.7429691306622912,0.6774085860651049,0.6359622990941438,0.6241128012867945,0.6367809351308242,0.6622845289078043,0.6801363141561025,0.6759129864682765,0.6416178959030483,0.6217206857224982,0.6241537555106176,0.5689990720216185,0.4702900308208249,0.3701885384641619,0.26661838472327615,0.1588732755005391,0.05689209136827911,0.0,0.05684893292106996,0.15746985707831151,0.2569890762267426,0.3565775623542313,0.4560281072695427,0.5511203168542949,0.65039081852204,0.7327101171836732,0.7638456362154904,0.7731989847972129,0.7985517942919174,0.7683540384311716,0.7104314877895976,0.6677748952502465,0.6888555476980094,0.7214609616657865,0.7384630278158477,0.7664672493242195,0.7497501324269584,0.7257081309927245,0.7105649057409713,0.7016300790847263,0.710292299873885,0.6850011247269134,0.658028877679385,0.6211661858668021,0.6100361757941235,0.6414577917707782,0.6551760353789682,0.7069822786544802,0.6496430054357198,0.5504771616169817,0.4468862979780577,0.3454044841135442,0.2453352647404703,0.1672057463701302,0.19498079168903892,0.29742545308747337,0.4003823575269656,0.5010942776882503,0.6018057617728096,0.7001372713095921,0.7950658319912294,0.8885901990303653,0.9409450519602531,0.9329679714052381,0.9268608349639496,0.881380304023677,0.8275455070644879,0.7519247458694793,0.6777392397825854,0.6157663200739083,0.5699080580639873,0.5851991417647875,0.6316108949951338,0.6570818301226247,0.655527195611272,0.6448626261561501,0.6410124809972488,0.5651785260110345,0.4673531088124383,0.36797695050587587,0.26528493826741717,0.17444273368796148,0.10851936555920227,0.13583126368398335,0.22931771909887866,0.3276490876724132,0.4278553789870212,0.5265604378950623,0.6271719708467121,0.7193580171195415,0.7982490170503529,0.8436735053949782,0.8493628664797628,0.8216353100098277,0.7632935586696306,0.7149296928796847,0.6959340505579557,0.72269173480098,0.7525104666408335,0.7454305906443444,0.7252959641356258,0.7471834490885141,0.7623294861824652,0.7816949370902639,0.7521380668999451,0.667815837229147,0.5623931370723034,0.4623609925468919,0.3585206692243248,0.2573058667089869,0.15531969751759878,0.0675575138346467,HB
0.0906198204576143,0.15918693238265536,0.23021660426844526,0.323692110878653,0.42809545260667226,0.5375763057840606,0.6479627558248191,0.7589827513766889,0.8695737119500255,0.9558924299600173,0.9275459360780585,0.8296267435407021,0.7230852873468454,0.6150844373972377,0.5170131817375327,0.4244364979942561,0.3301752311258612,0.2499515961228178,0.17914045174719706,0.12410876381273694,0.06256869234545492,0.07114855356605876,0.1339270260239085,0.20155980202264523,0.28674289525706076,0.3910092083245327,0.5021806326124725,0.6146003157025959,0.7263895136585199,0.8375438460507942,0.9450620362951963,0.9822035525570936,0.8991046562298783,0.7946437389467882,0.6870411009868789,0.585294634496075,0.48593995397597767,0.38333262058663764,0.29977602090731814,0.2654306623402032,0.21354362538325256,0.13386729910593442,0.06505209058628636,0.08269381661399566,0.15237122834386851,0.22386618634241673,0.31391127505950234,0.4154393574396362,0.5231431286032711,0.633450082873587,0.7445358421408468,0.8561404542074971,0.9532177703104292,0.9359016573642398,0.8400585149041426,0.7316842632318008,0.6216053886752517,0.5243317303735091,0.4273464285006787,0.321984943508852,0.22343377684204446,0.20024543862935684,0.2041103117988181,0.13386508290350974,0.05330658565987001,0.04497999671739139,0.1075070343427369,0.17550620143116702,0.2538926937417112,0.3570731581983444,0.4643341312265734,0.575232226809743,0.6874201190335971,0.7985461837808607,0.9090586485264123,0.9850337227104835,0.9355922068117062,0.8334485270105172,0.7369528142161863,0.6331035779987217,0.5321838445171492,0.431923396406251,0.33746019097179514,0.2825822150959081,0.24418728050493255,0.17093587760102857,0.09260846823388924,0.08606183532404943,0.15201248550159652,0.21996524405208917,0.30528363031562855,0.40502423931191545,0.5116836333091908,0.6215822576645451,0.7366143668141334,0.851950641132301,0.9473746415316939,0.9400505591092831,0.8427679904684642,0.7310983492183776,0.619683392133628,0.5129933750156532,0.41687446234482706,0.3275390632799673,0.2664904015509264,0.24562339356370644,0.17916268017025705,0.09588523644506086,0.042977370235394385,0.08179170891526488,0.15139032558494692,0.22174669128394164,0.3181130510483765,0.4223149229185774,0.5288907692409661,0.6295900940509616,0.7390275773866379,0.8500643430848416,0.9565952580564252,1.0,0.9212441108622302,0.816306032811263,0.7170685692845398,0.6137596460249468,0.5101883491275228,0.4133382124548939,0.32131001499625333,0.2618789573358886,0.1884285371975991,0.10474231855697802,0.14191569094388945,0.22970684501824445,0.2907464824278876,0.3797019190467039,0.47981120184968407,0.579432017350034,0.6850325895052043,0.7931612294321426,0.8864996114709409,0.8556529959231536,0.7474622357628107,0.6348513601267567,0.5230191950210088,0.4150314100214385,0.3108079080582007,0.21679821991656034,0.14343953956448963,0.07481124130045824,0.015341300251808798,0.024314207687180067,0.09999411755594534,0.1815592186080599,0.22753082808384084,0.25981919447087076,0.34321124201398656,0.4339813055664987,0.5388748732397277,0.6486499916053972,0.7564013805563663,0.8542194436943114,0.8656829878798007,0.7663867922149865,0.6548374096818517,0.5447767412550939,0.43227243030000695,0.32714148528599285,0.23624344245689843,0.16375585351275634,0.09556853302507973,0.04255686779645074,0.07081646494827232,0.1484041599079764,0.2217800025947667,0.25322559627845576,0.301554519360975,0.3959148251248299,0.49691848651525694,0.5931742127775055,0.6978388834155753,0.8052904709187749,0.9048388587641338,0.8994646228959919,0.7946300700952231,0.6827213891328807,0.5700766407904403,0.4600093064939148,0.35336114804569574,0.2528774183079907,0.16844232381426338,0.10068106917749398,0.03318557551799084,0.0,0.051311014867689186,0.1360960761623733,0.17553622719822637,0.15642899420080925,0.21250132702336222,0.3099918819496008,0.41442069947996574,0.5144394425657963,0.6163387366117064,0.7225292915690373,0.8275701954779568,0.8869196481150792,0.8114729096041386,0.7007283628562289,0.5853989718084802,0.47264166536388674,0.36753526758343713,0.2684521219634268,0.18632796064709423,0.11726645996450036,0.0484913681965653,0.027173754131391004,0.0875840562688297,0.16815125337139847,0.2312642683409356,0.2653294673267159,0.3455383444543412,0.44745190393053447,0.5452597250046785,0.6439542609961306,0.7500730926299815,0.8577414261658571,0.8860384370486611,0.7984708235032993,0.6930214355156459,0.5804574568559302,0.46922962637533994,0.3628232610747604,0.261600211842711,0.17661519864007547,0.1102699453508933,0.04598452715982626,0.016370979233655047,0.06282009062494365,0.1239857245154583,0.18394743148006754,0.2590752632158524,0.34291821075617257,0.4377619730815494,0.5331543233825724,0.6334728680079822,0.7385070575585346,0.8430287641387044,0.8943571098380982,0.8108944419138489,0.6954474609585668,0.5840179887604342,0.4734767154685424,0.3668257175379088,0.26779990308346013,0.1855973566966287,0.1162581291761382,0.04484518650851599,HB
0.5962198523954156,0.6749636890553146,0.7569232544519058,0.8306044624131221,0.8782323897428648,0.8889720380727084,0.9154911464045852,0.9823855871370597,0.951410887117893,0.8397850380585674,0.720008552784948,0.5961882447067088,0.47421037775199926,0.37959240175081144,0.447628454463761,0.560143102518075,0.6509121603459258,0.6749486001655307,0.629152846184978,0.5543176524052158,0.5814644972908725,0.6482061947355242,0.6514801007538376,0.6171430744986055,0.622611374513454,0.6977496311987728,0.7827143767774456,0.8543488179173484,0.8879034930421597,0.9009353702043206,0.9392477634558731,0.9980102066025571,0.9303861484730578,0.8109179648066109,0.6905556228517225,0.5639375664730459,0.44550103104686767,0.39553722629389965,0.48816901552545255,0.5990673115319947,0.6784860057795377,0.6713693455690035,0.5969063217589188,0.5361909869575356,0.5879641858672526,0.6387754773099776,0.6214006627747306,0.5778821335194193,0.5982009131425539,0.6776379200529998,0.7589157730702527,0.8277365869693534,0.870682559047669,0.8856602839560646,0.9298579577160755,1.0,0.9490260938546902,0.832604631511749,0.7113608789804742,0.5861941952177725,0.46973141641347915,0.48493560059567997,0.5915071598461452,0.6751229025639622,0.6755802453419553,0.6114500242904803,0.5779381471679561,0.6376826558227866,0.6691674468303228,0.6365791216014896,0.6060843683831849,0.6488043042816716,0.7294189862701379,0.8132128695824528,0.871967446955646,0.905369888367888,0.9024819299477951,0.9251633586929287,0.9942455200119569,0.9580322069211284,0.8404108674827575,0.718532550841902,0.5928309437747061,0.4678818212295406,0.3494992237749852,0.32660815257253306,0.4346174881323317,0.5459771653435586,0.6481722892381772,0.675736128750966,0.617128794327523,0.5665059402816497,0.61818859528928,0.6494544067103467,0.6120660746202327,0.6000642319744682,0.6698362321122397,0.7490455722275882,0.8219946764515078,0.8567955965214433,0.850824055437259,0.8826757671096801,0.9344108022092956,0.8655093980557584,0.747736239960545,0.6258414075851197,0.49586015561301755,0.3665384826663973,0.29661827762340653,0.3803261789470307,0.4908380604920848,0.5705507349482541,0.574980965625389,0.5592932233324213,0.6189882155255404,0.6797825829805171,0.6752758316587446,0.6272303536200274,0.5635411928038216,0.46972649187092586,0.3547173540798165,0.3418531531471265,0.44781635334870384,0.5483395500600152,0.5940159972857098,0.610940133387099,0.5566899849834424,0.49146794159096174,0.4932354278623441,0.5260404489223687,0.45841779007400163,0.34559367035890953,0.22933746920792264,0.1133684018228327,0.006316333303341137,0.0,0.1118301130818169,0.2343423759369938,0.3639631950556772,0.4860112255942908,0.6110350128020912,0.7303405896043289,0.7968858288431142,0.7784556726907699,0.7845565487779376,0.7777202697029,0.7110848406040708,0.6318460618244903,0.558210313185703,0.5341934693498094,0.5728816541777233,0.5736942194309682,0.5067978871933931,0.4805876782307936,0.5514216068440141,0.6195095834373276,0.5756125847222195,0.4711236861574908,0.3466150252635469,0.22291185909328637,0.10935486384643345,0.05858329213648661,0.14599001596733108,0.2683878668510955,0.39355438731469583,0.5159217023011551,0.6405729786397405,0.7630237556192778,0.8583359283036343,0.8391343163046998,0.8426198367220157,0.8278177257627117,0.7765598337550497,0.7004854807825063,0.6132603031982966,0.5457780385762812,0.5450150242762124,0.5924517523976602,0.5855789747782603,0.5203726901963357,0.4985011974777387,0.5711844244771429,0.6174331724270221,0.55244896402289,0.44421593904828494,0.3292327993233799,0.2094274704545409,0.0972413851450793,0.0704628484166927,0.17055884013965317,0.2975899733933234,0.41140642296363295,0.5197293041045454,0.646346344883288,0.7665042083285334,0.8540535953209702,0.831293736222269,0.8144137451006195,0.7852733939241325,0.7183735793291235,0.6385072451863829,0.5603858507850918,0.5059873787607225,0.5314744118596133,0.5714136339771465,0.536138744116728,0.47853178123774676,0.5154703255354538,0.6001029957279305,0.5955724803161968,0.492730289268243,0.37318304151108483,0.2565320646587912,0.1386381653616937,0.056498446163660176,0.11934061960096143,0.23866481110961835,0.36775330822440444,0.48955729844701956,0.6142535314013386,0.7345265748350744,0.8350082320173202,0.8348629182496086,0.8194697498569115,0.8143083302082172,0.7595564190871036,0.6822152956763263,0.5982535579748482,0.5426626080608337,0.556456555688706,0.5950863136522719,0.5625127015838403,0.4985042979789567,0.5077327620784775,0.5882710212391387,0.594553659520503,0.4985913413490244,0.3837487088421898,0.2680715747665181,0.1527228866809336,0.05504387266084465,0.09260815947611811,0.21228293917142116,0.3353674914684126,0.4645959688300443,0.5855306240987761,0.7086532937422745,0.8188785881909606,0.8360584412817715,0.8154734191697877,0.7991353476445675,0.7422043774361726,0.6628095202399154,0.5799370480948904,0.511240399892404,HB
0.6505365322988053,0.5769312397485784,0.45751564031582825,0.3293721971527934,0.22815223911528903,0.1698809753962185,0.21730459807476743,0.2875086190128999,0.35637976520494297,0.4424936659887151,0.5585398412853926,0.6922398862931392,0.8292569388527675,0.9397231151716654,0.9188145820752434,0.8052812274949228,0.6795410921220566,0.5415128777294571,0.3962625260291852,0.2915765467487783,0.35872140599550617,0.48046322475640757,0.5361186851699293,0.48927949828721307,0.43479185165729195,0.47781685575600363,0.5321349302924796,0.5377572074886117,0.5047458188193068,0.441562992944426,0.35471013991460953,0.29064285506532483,0.33239087604882966,0.4066431069755043,0.4660906923636712,0.5444406022300732,0.6568184881101429,0.7908204071812279,0.9229413274074916,1.0,0.9284097458682172,0.8113843349966188,0.6835221817863992,0.549234925280977,0.4118290370047397,0.3114901310990681,0.3888797734091045,0.5009313487503539,0.523830675012563,0.4535636263809133,0.3787152355326562,0.39731429196159107,0.4552045171979646,0.46860044553087876,0.4337752804331063,0.36976875866881054,0.2816385247635784,0.21231430480305136,0.2494469589024706,0.32167926359113874,0.3891255495053336,0.4635571301102588,0.5739415063436741,0.7097548837767795,0.847372279690525,0.9501791019535304,0.9186425576571309,0.7909750865023892,0.6669237274401936,0.5377962070973097,0.39736505528663457,0.2640882753557765,0.26284971969444415,0.37912276663465283,0.4890179799319818,0.5040253909154222,0.43205755820179803,0.36864976886080436,0.40018396116754307,0.44018676408364454,0.521031965790276,0.5479917851011429,0.4728225197928899,0.3868975143408324,0.2965385241980951,0.24872644878620953,0.3128636950608703,0.38233190276771856,0.44082096851257413,0.538732127618494,0.6594838730305814,0.7945936732908883,0.9124302949174004,0.9330367014076324,0.830120605593236,0.7080673257954531,0.5828976937480168,0.45366806250414493,0.338716617984157,0.3111742114919087,0.41671773183896166,0.5026202646953339,0.48953234572976356,0.4181648640108855,0.4108565839613547,0.45905106089156833,0.46257476922482343,0.428387544288618,0.3552786984335814,0.27227398373370804,0.1966833825774006,0.21114723641683675,0.2772887603247298,0.3418932329482476,0.41825074528337636,0.5299462197251792,0.6643224834365378,0.7945750871520558,0.8491357817759182,0.7654732987369091,0.6315861669313803,0.48731467030322895,0.374078927760193,0.2888535582174492,0.17219224557344237,0.0366976382493962,0.01750352738019334,0.1322242253635686,0.26314351345805687,0.2470937261948567,0.10841892236468098,0.009802830136579122,0.0426615824988712,0.16846704188546946,0.18687699197168417,0.1274381777135729,0.10957401354020746,0.16847444710517356,0.25180586051603404,0.3283378113069082,0.38294399539560997,0.37864157015862787,0.33199933307144613,0.34068948879694716,0.41126688918483767,0.43642503223528495,0.33874400902050406,0.21540954803371815,0.08952540245468521,0.07723730367036152,0.1977627097513759,0.34383589994163977,0.48199306065948866,0.6096294573202661,0.7358087292588169,0.8242630242827254,0.7404699489995967,0.6077358776194823,0.49162303502447546,0.3903612663742497,0.32080466104809124,0.25720832538462046,0.1892633261841432,0.1972666851080631,0.27559374301700457,0.3615222660286168,0.4369897259411948,0.41040067713992734,0.36534083747431145,0.3335930686627684,0.3029903147773769,0.3582634109413805,0.43089413017604006,0.384718327736568,0.25391889419208447,0.11707679980586239,0.0,0.030799231097415003,0.16554213478031654,0.3072438261620025,0.4297830569160612,0.5614624256106175,0.6969366493051457,0.8180131545356075,0.8438984936230822,0.7219233214048653,0.5913239775068404,0.4691626353778524,0.3716460537139894,0.30657475235844256,0.23557718037262765,0.16067118165958272,0.1319037569422541,0.19737054213980798,0.2895899387362384,0.3594059140370094,0.39846441688906165,0.38665706920168397,0.3314524064403903,0.2966875311619468,0.353653349724659,0.4326809758095096,0.4181607639810374,0.2974704025198158,0.17014906062209567,0.046895282917132075,0.058210000806738105,0.18676831434200825,0.33176650757539816,0.46464668370251694,0.581684464795456,0.7124681798213466,0.8363173519032685,0.8802645784500447,0.7649212146942266,0.6306462598275315,0.5166745306402727,0.42984033376162945,0.3635973810730522,0.30209178338102305,0.23143614305856142,0.22095020005864674,0.29351495036876996,0.3800782565623644,0.44589648165851337,0.4686138143158276,0.43356808187639784,0.3724128680743326,0.3755671345531715,0.444419774904925,0.44614982230085865,0.3337821332784583,0.20802441848630648,0.0760919345532809,0.028274250031932624,0.14568545831002266,0.288486211750552,0.42892392712396754,0.5625033872895586,0.6945189297632717,0.8127534264649703,0.8215289460160005,0.6933876052873975,0.5477485358267238,0.42496292012801806,0.3283003735324139,0.25483894313809374,0.18886425115643402,0.11392241447405205,0.0793046813546967,0.1435232680380203,0.23343220443384194,0.3422426994461425,0.47120764892702516,0.570490108793658,HB
0.6508587893602444,0.6357089009294172,0.6443617481625166,0.674599164445945,0.7264216625516291,0.8007215961861271,0.8443986138971236,0.9359919857295884,0.985560854849912,0.8865267713193752,0.7473506322536585,0.6094399802067465,0.5592392227730725,0.6549752684514489,0.7402197221901992,0.7155743361186779,0.6233138737152226,0.5872030115124263,0.6190199925618503,0.6265448377011011,0.6245029368834314,0.6620347703436813,0.7049593402099501,0.7059415451125912,0.8040085886763808,0.8966869172193588,0.8633685686690231,0.7331872098063721,0.5996493451801383,0.46342544460311275,0.4298205086021838,0.551840912132628,0.6565755873891306,0.660027930081839,0.5540271631940075,0.4789310129746627,0.518183032261196,0.5514826713223218,0.5533342765925366,0.6060120574019177,0.5816282768034897,0.6299283097521142,0.6758088899279207,0.7465479220748497,0.8410348122732925,0.8641840293570586,0.7534228122542646,0.6181955501893148,0.4999855256533461,0.5224484797922297,0.6491054122605493,0.7267909023462675,0.6711723812041042,0.5836649045912348,0.566706701166128,0.663927357817339,0.7162292256574865,0.72309695038609,0.7183701758946446,0.7425439876961419,0.7822738797823197,0.8516867605383516,0.9418517038725496,1.0000000000000002,0.9122426070222815,0.7794571431906812,0.6411647364448814,0.5813948646448541,0.6839180680063413,0.8069670303279926,0.8530894813852818,0.7707406715160701,0.680741846527708,0.6768071205853792,0.7359522800065881,0.7288928200162934,0.7477584140485598,0.7242404890401655,0.7669356993093117,0.8306397192419686,0.9216004527118098,0.9608871334335369,0.8603913783166204,0.7265637840293608,0.6481883352551163,0.7258739236918548,0.7716087216079657,0.6964352053693998,0.5947014663361954,0.5714590316447061,0.6117159410582453,0.6416781286287696,0.6123760145705934,0.5789824575557987,0.6336735094494106,0.7122543692281227,0.808464957732655,0.8762561822098773,0.8057614280045076,0.6745180726147006,0.5658928970618149,0.6183478835841936,0.6808932004957791,0.6147008837116268,0.5329389150391928,0.5417517132018825,0.5791382182154368,0.5379610266340316,0.5205631633594026,0.5253184087129554,0.45190951269516844,0.3552821181679868,0.35606800250214454,0.4107071441007788,0.34694666188830214,0.36299308589117807,0.4680261687474929,0.4859907711083511,0.41664066417468804,0.42168033214200595,0.5116439537957205,0.5929580566670081,0.5372771421457274,0.41106650580687565,0.2716921178693703,0.13263753224347186,0.0367780791379968,0.09629440267979206,0.23320969709040962,0.36819316972364735,0.5039256816603659,0.6442657043718847,0.7562945735418951,0.7213893764226935,0.6208259576334707,0.5421458774467762,0.475441490396868,0.4820303943681281,0.4952944309006726,0.5018487761350137,0.46651459379830396,0.500128015736188,0.5956156253443441,0.6691206578490132,0.5939212924428412,0.4620629766718154,0.3264480891344981,0.19373110814688776,0.14733637340532368,0.2522459208065051,0.3874092056241967,0.5220577447255115,0.657925791152493,0.7879599730805633,0.8051282140957923,0.7282074459254988,0.6632493989147252,0.6062721086028711,0.6205363689042751,0.6241520880225462,0.6126403721163598,0.5679373499628215,0.6174308281347825,0.7122299045309148,0.7582707401358426,0.6596159705868521,0.5317415453408287,0.3953849075997484,0.2624161667285376,0.1251855637138144,0.024504229361482777,0.08162431993050645,0.21671645492559666,0.35675397817612886,0.4896713006961959,0.6280322664864886,0.7655481731068716,0.8435171498730891,0.7845127496866386,0.7060560559931763,0.6616253708379343,0.6310353925423144,0.6451793186664165,0.6125076639497755,0.5813150348596714,0.5034904017324879,0.44698631148363077,0.5065220458520618,0.5921478769615534,0.6362414530289326,0.5386047815255843,0.3995881089064741,0.2658414615841558,0.1490048556047574,0.023269560266431455,0.0,0.11772802494332679,0.250120268065549,0.38919239827691676,0.5253542261905988,0.6587470516756158,0.736162190097968,0.6535373000667386,0.585538235561363,0.5302991977443996,0.49988730694970074,0.4682126592996336,0.46238974836599156,0.45618051758626743,0.44805338930508753,0.36798454378712275,0.37585852437372846,0.46231982157211626,0.5699849586884898,0.5726899358873054,0.464850895005392,0.33259306602707306,0.1972800432448507,0.06973138095127185,0.03687937646303596,0.14952416344377784,0.28621909696909653,0.4197332195332564,0.5587469305616224,0.6874037558191994,0.7293205515618453,0.6407194438552761,0.61189457626125,0.607416009133525,0.5422834533612961,0.526076924059599,0.5330719296025026,0.5442474838304228,0.5015067252198568,0.5088819170174264,0.5863271799923093,0.6309920028123548,0.5481371025277302,0.42185707695295815,0.28312330773883776,0.151364201019071,0.06078331858856423,0.1372408481239713,0.27014877997293496,0.40764070629280647,0.5408054741331172,0.6760492905662658,0.7554884751517672,0.7198735819327255,0.6786935531350746,0.6095175501647794,0.5624787144445413,0.5537529624903441,0.5579519639050503,0.5639607807560325,HB
0.3183890616400973,0.3180251374171017,0.30548034713654726,0.28799076351730823,0.31554803174745594,0.35358892158230537,0.3835850155136846,0.4021064125140268,0.42316044494139504,0.48108911067907156,0.5759588025045348,0.6829782131578837,0.7908731108070244,0.9034464325362435,0.9776920728940115,0.9242267712192072,0.8104234587144412,0.6940710519320508,0.5861613045315663,0.4670949435154226,0.36256656950189425,0.373117681657392,0.4212071493763765,0.43044034707570233,0.39997938004450573,0.35321945366583263,0.29289748596571297,0.22738015380457988,0.2488989841002156,0.3235850215156266,0.3839755525726636,0.4134671766581923,0.4248735236537997,0.42227391156896976,0.4165439748339832,0.38958875346464383,0.38657457274323104,0.4242677026754489,0.4683725550869968,0.48786278600012123,0.47468943646971207,0.45365603215110495,0.5153781045581489,0.6144645094287315,0.7312550512518237,0.8511876864035854,0.9526680537874417,0.9441683894054509,0.8462826862079122,0.7285027824000139,0.6104927705375207,0.5031334939005987,0.3927952330827633,0.3804827548088481,0.42717788897472175,0.4339644384376,0.3918615666338918,0.3278297701666517,0.2569323054785255,0.1771477808866213,0.09789255230544125,0.11082468667393242,0.18639786084479226,0.2607087104798591,0.30107243847226384,0.32084455059481076,0.3352420683026147,0.34026258483633054,0.31948241136682354,0.2962148196602543,0.32029810142645987,0.3670599672122066,0.3997771271108208,0.4152027739923527,0.4365319025886927,0.4967333765895887,0.5982063518143668,0.7035909948563153,0.8142507408641855,0.9259066498281712,1.0,0.9499570027850504,0.8344008866160668,0.7250108763755758,0.6105759119196237,0.4918863350780107,0.4118946773838541,0.4279667931851412,0.4476701918285313,0.4346186423619667,0.37824051070962783,0.3202957864071059,0.24618263414446728,0.1847128487161398,0.22176914906483525,0.3043768504456703,0.3656616023315644,0.386521822224422,0.39464420736470984,0.3662939066030293,0.3179784951598563,0.2832672854226037,0.2526948146381329,0.256330740576042,0.29544445538423947,0.32020102074549683,0.33612272206674687,0.34640984512871764,0.38808987748906043,0.4705906556108106,0.5752925548282812,0.6896647764536592,0.796650703789227,0.8894540079589093,0.8640436918286678,0.7519146918158426,0.6320158861127605,0.520502152961476,0.40862341093917154,0.31793886402003935,0.33429482530790544,0.3591605320990525,0.3477519527635011,0.31392428424235463,0.25784128711947574,0.18889107830348584,0.13910492139007458,0.20062079807209132,0.28026500722248526,0.32793126790281457,0.3507689544496264,0.36214111836462504,0.3681381910441077,0.35791914789738044,0.30924953176737846,0.2765619016885972,0.28266885846776413,0.2760962801761164,0.2629927809222923,0.2412751872324228,0.16967771350834449,0.09570333342513049,0.06247788545994393,0.11625526382607188,0.19121904638637366,0.23101887272518784,0.27391354408769697,0.27965761152477375,0.23821896756225858,0.14313246412503267,0.07285873642385354,0.12371898225059041,0.20789654712969075,0.3221965354944212,0.4323955813338789,0.44917827684308254,0.3684494850784117,0.2987569480114738,0.2594194752589365,0.24259768367918877,0.22548598159827593,0.21091013212300647,0.1779192164705563,0.1695148457123854,0.20521952527090725,0.23837770017438276,0.28581166813984726,0.30775175301799296,0.30490081933261104,0.2842936733319581,0.21463833872470373,0.1223976681826997,0.08614396939066404,0.1252885569142408,0.20642068246423984,0.27769837497162486,0.33349214744785405,0.3680080445938847,0.35511442510890623,0.28827722588431115,0.21062824420511683,0.25146101774023366,0.35853307001312906,0.46973869527594925,0.5846110693398203,0.5971466131834888,0.5080440548892495,0.41794187469318045,0.3586041592392917,0.3333754570692573,0.3213310155272051,0.29804283736871184,0.2541151898156926,0.21634126477962834,0.21128983186245565,0.24371090246658778,0.25692483542335065,0.24310643379399366,0.2221394988208516,0.1986479709616682,0.13021316778345948,0.04507162546544041,0.0,0.04148696712785238,0.11923397110498346,0.1966932671268493,0.2648951405180724,0.3382696475576874,0.36006845762633066,0.31752272298333306,0.223335120948704,0.15508609126860096,0.20041706949328564,0.31032756076739965,0.42110889136706886,0.4405249432028988,0.37520385917601073,0.3779107231231418,0.4010834383053319,0.3975798970977764,0.3524145388351685,0.3152139850423983,0.29296694841800797,0.3169496284986497,0.34379726980327785,0.3449199234373497,0.33341628104643695,0.31827033791653747,0.25943800897145275,0.1767942991715814,0.12355056453323865,0.14251765046138232,0.21973236429697396,0.28003257125346925,0.33327113757501303,0.34956876952276916,0.3235640852084263,0.24224640337909875,0.14901852383880776,0.16080476446526548,0.26746302624841745,0.3874139201807627,0.49099009530935955,0.4733610885265236,0.3916417764088864,0.3361415200609592,0.3148411584277313,0.3039521745143614,0.27476293153787035,0.23383048487367208,0.20086053395371772,0.19876458930543173,0.22764854855941197,0.24271954856939137,0.23693610325092074,HB
0.8856241667027418,0.7603533205201853,0.6294529701339289,0.5639378363264966,0.6564202464902165,0.7528587726693248,0.7992017571098877,0.7916979918726539,0.7718121270586824,0.7022795441305401,0.631390828307699,0.6055517062210702,0.6661174326476056,0.7145946958369072,0.6888929941717756,0.6480806872437328,0.6837035797629305,0.7391839216569629,0.768315610429072,0.7824395999390559,0.7866558947383075,0.8193327477859667,0.9113222506442429,0.936064143211949,0.8452976889936328,0.7264887366721071,0.5856459726930132,0.5361260295017636,0.6440701065051773,0.7392179020167524,0.7909822580324022,0.7713261377257865,0.7650693486111626,0.7182673385592104,0.6428335656559758,0.602594640209162,0.6486319504064957,0.7122836004178925,0.6943349030973218,0.6557395194453841,0.6250621485590315,0.6598629716065076,0.7145639803119388,0.7559162426884458,0.7373242433765133,0.762727854391855,0.7865056119642997,0.8277224272516808,0.830007340569423,0.7407229721866369,0.6070375905688867,0.4751330592995293,0.4202669324574315,0.5342792239722316,0.6686067835734573,0.764517051930286,0.7989955650470972,0.8069513907784112,0.8083065686285944,0.7454926236015487,0.6690841075237439,0.6369431330432249,0.6880390430255212,0.7246641541549552,0.701839682489267,0.6711662753499601,0.7147798058711392,0.7527971421174122,0.7812734524869831,0.7901959186454697,0.7962585268206701,0.8474680959641852,0.9449699214477256,0.978639262060589,0.8720390533795581,0.7304714691979006,0.5953129157406218,0.4670484125315082,0.501948324123735,0.6360654147175113,0.7556551375446459,0.8132763727331094,0.824594277384862,0.817372011890559,0.7755182914542997,0.7053031006469812,0.6417093297703031,0.6729930652432667,0.7255687868948462,0.7271470140875591,0.6746437511301977,0.6438333603172155,0.6821503070370336,0.7245460400817194,0.7517410975452958,0.7809065815946385,0.7826159993939128,0.7924953733580313,0.8607391089844074,0.9778550974474842,1.0,0.8868497397199708,0.7543525654530594,0.6296880919604182,0.5325187775844138,0.6075658275598723,0.7043828359726323,0.7827929649966787,0.7919764554205573,0.7601651958579501,0.7173192402787079,0.6341531155550575,0.5970294984668341,0.6470259282290827,0.6887962554148324,0.6935914474870497,0.651892157750491,0.6782818152144157,0.7275640840797455,0.757467323102595,0.7234316674265528,0.6166282605239757,0.5171872142698795,0.49107870265441544,0.4149739180702108,0.2770899978409975,0.14788208937275638,0.12572229971180704,0.22624694149733804,0.3641529938840016,0.4289955173351392,0.4622078696461851,0.45439594269653627,0.39562612444657264,0.3844990613303869,0.4379416681608377,0.5102485764760618,0.5433297174998502,0.5571458219129415,0.5468206645261118,0.48773090977192446,0.3560511695896298,0.2192596437568417,0.09497235965787043,0.1000743997763407,0.22503906277618624,0.36110974467349877,0.5021323183024156,0.6354598060932655,0.6554049736699286,0.5719891818933123,0.5413640222195402,0.5539770045896288,0.5310133527021961,0.511014876260889,0.47363543525156926,0.4309290970959445,0.4339772504636321,0.4871839333230179,0.5078442085397765,0.4545750152763599,0.4326646642207148,0.4931489143438679,0.5624025063535631,0.6067507967563466,0.603417808417849,0.5735173522998296,0.4733643540589094,0.3469220472926451,0.22968005686748283,0.22729221018903134,0.3363730369283271,0.4757741985157429,0.6100387349263019,0.6660119841012104,0.5932491795498263,0.5509139374828225,0.540782583785087,0.539887913829725,0.5341165074378007,0.49635609871466935,0.46490843764734135,0.4676889006621896,0.5033516517621437,0.476180849038081,0.4155487151263495,0.43735247578987124,0.5157101936399102,0.5777142521501357,0.5691109771012095,0.5758872542974354,0.5246566185393164,0.389220973962626,0.2560200884384942,0.12275812564880839,0.0,0.008188358533244067,0.130331613415251,0.27141710021749477,0.4166601049584484,0.5501825713790471,0.6508159736689043,0.5911366292050473,0.529774694566568,0.5078522391694666,0.4858851832001192,0.49062807451628254,0.4547064297909391,0.4039063556057396,0.41822223434658046,0.4374773858489678,0.47413162227004335,0.4396304795013535,0.4096720334777646,0.45032943648136614,0.513500932749575,0.5568082907420107,0.5736010327499219,0.553856094547418,0.4560705043051585,0.3311348167995871,0.18584857313788428,0.07629214059833966,0.13379499980941745,0.2724537691797302,0.40793228183649966,0.5553386742173552,0.6950158734201013,0.7381031201525969,0.6444084061110922,0.5565295693203471,0.5411761070088343,0.5359301312484246,0.544849548492468,0.505730678697164,0.44954653379972864,0.4105636183517185,0.4369314832351687,0.48010185350499013,0.4452974444384421,0.40856377539515787,0.40255813937637974,0.4738698518348743,0.5471460898042935,0.5759583091903355,0.5899641799560729,0.5700673052347813,0.48425344764282174,0.35325290033538925,0.2093189182947599,0.07404678880707172,0.02702917555157036,0.13815486311361536,0.2721014444026033,0.4051237648696637,HB
0.6909275002019184,0.6385839537899849,0.5803063914329263,0.5811117880169716,0.6662275149180283,0.7385657722358987,0.782617117272685,0.7936350540057573,0.7592892696904969,0.7020265588040475,0.6511359176857683,0.6135598137412677,0.5545426749301394,0.5717392277493492,0.614748287482521,0.649534680040305,0.6702462777058544,0.6548967992563348,0.5729078214960799,0.4703642351756998,0.3973383700941513,0.46405987090395406,0.5652465970744331,0.6495951203519499,0.7057832729103506,0.723603191429198,0.7103937127995748,0.6624560234001282,0.6016647314600911,0.6017544369016758,0.6786334973096366,0.7407472178945671,0.7866098760311759,0.7836520907157176,0.7570610421389139,0.7037707162270852,0.6943622442960202,0.7223734948120248,0.77000948798214,0.8111029276807766,0.844386475000598,0.8641656671764513,0.8523947268117338,0.7622493279972318,0.7032039645396257,0.7745435983930884,0.8682278424086354,0.9328820387916501,0.9642293843294989,0.9609340872910122,0.913371769165713,0.8529932320511411,0.8433608627638667,0.9076980811182116,0.9630638341658635,1.0,0.9969225908750121,0.9588998706189229,0.9021571088633662,0.8686627870924797,0.8853534559090153,0.9244491938229129,0.9538950487139797,0.9616279912921661,0.9377815833141989,0.8909071768373265,0.7983755898861444,0.6945770295250187,0.66981108994168,0.7606914275848728,0.8462314787739942,0.8971559507852738,0.884061110541174,0.8415091067119711,0.7873547249074706,0.7235461503072531,0.6824571555201886,0.7436695300945573,0.8131489486258494,0.8606030598763019,0.8814165436596024,0.8513756568825612,0.7990402685448328,0.746715908063273,0.7156618727801587,0.7040567579797221,0.6527408443806455,0.6578160233060548,0.6850855386246484,0.7134888898262108,0.7251215959649318,0.6788870113218435,0.5993559564287487,0.5066140339625247,0.523547945118124,0.6229454302400481,0.7190800518460247,0.7860998114223725,0.8308982807026468,0.8800974584865795,0.863964533505261,0.8034394233439337,0.7358279936935759,0.6961524215820294,0.7439364185239419,0.8021738204313009,0.8408691229823053,0.847784147775914,0.8140110750404972,0.7634103495666209,0.7358443809017325,0.7190136005775916,0.6945837469206566,0.7174121287508881,0.7504160448309594,0.7337290093482789,0.6873283557259202,0.6523158328098142,0.6312672975630198,0.6693427392444176,0.6859441857850124,0.718598190954296,0.7680056789048386,0.8002419569505772,0.7746662825432207,0.7147907203416133,0.6549896314186676,0.6347841793352127,0.6814069286966893,0.7500709891073574,0.8109700143117986,0.7986188204358706,0.754476574157823,0.6877261078690058,0.591784651908942,0.48721317579586243,0.3757456114338633,0.27191071645721676,0.1713491980364079,0.16839333561398995,0.259869174827851,0.3632445160964539,0.47388503516190106,0.5874444394262017,0.6651529350188885,0.6671334093613432,0.6410939472052308,0.6076632759631271,0.5796040525151067,0.6030948256732209,0.6584639789098863,0.6786244278641504,0.7170116324615861,0.7759046299747867,0.8198605855453827,0.8109815223513763,0.757326799407422,0.6790094543919989,0.6110972748381265,0.6163452647488623,0.6829403235287321,0.7470240092797429,0.79518656948864,0.834004339773506,0.8057950743331914,0.7147557472067327,0.6083479308225361,0.5039148924195551,0.4082602029721074,0.32516300283206556,0.29981218793347253,0.38838124187327994,0.5026530702666379,0.6079245050582092,0.7171491110512811,0.8165545071919502,0.8810508329156859,0.9116814424074278,0.8993606531043912,0.8667429978878043,0.8217397844279679,0.8116802015105469,0.843355468293411,0.8978643371543815,0.9474887178023668,0.9406192298834211,0.893859980476118,0.8308743327963359,0.7752342998423543,0.7855533493588953,0.8469550990581216,0.9042519790012244,0.9100598065599792,0.8609431907449596,0.7703313467575317,0.665024516552942,0.5667675941520143,0.4762472890369298,0.3734366354144214,0.2747401746192475,0.25986150265632313,0.35513381687631984,0.46446515728017035,0.5700632513351538,0.6776985311087595,0.774754935494343,0.81126830615659,0.7896888117268226,0.7529646341283467,0.7052930624184599,0.6661485914951006,0.6380081143946641,0.6389554090937679,0.6806805376750393,0.7290458101202497,0.7348476755945281,0.6865638769255034,0.619810824817709,0.5475662462936834,0.5233502262562499,0.5759517478754201,0.6378195397445343,0.6677786756230781,0.6524490345163865,0.5862688286171567,0.48995103204103563,0.3839368226478701,0.2780730154188711,0.16712103333678474,0.0646331168929275,0.0,0.05942681730538735,0.17225799008188636,0.27950202095717414,0.38722697623956215,0.49456837119684094,0.5880497757733902,0.6222596658944304,0.6014778682015551,0.5661879104477809,0.5173476902868699,0.4705538724152607,0.48158960672786444,0.5647937216428627,0.6075702062935497,0.6526864250782114,0.7091653260214352,0.7442849955927557,0.7230014710188484,0.6684014189431648,0.5849422548895884,0.5109104181536526,0.5148028522615706,0.5681052017740678,0.6307363006264892,HB
0.24864365690680446,0.3082990734189526,0.34315743227456785,0.3672768986099295,0.3800950042253253,0.3716986867110035,0.4332748840689167,0.5432249259569208,0.659624640885561,0.786346104190597,0.8906788486023975,0.8724935461135264,0.7648424250151238,0.6395167237325685,0.5161940141013046,0.3967454495571556,0.27777829858203873,0.2368463578084814,0.2310974733887221,0.26198382981332546,0.25577838388903285,0.21321000442644644,0.13769440440917036,0.07585718247187367,0.12846047528465787,0.19820877397653147,0.21654260090045874,0.17552140112372783,0.11937958426793083,0.09402638477616376,0.1481038306725373,0.21490585561499032,0.24804179233179102,0.27418648034422155,0.2866813513277924,0.3312030822632752,0.43116607497464043,0.5450960517871644,0.6622228521888762,0.778603218429399,0.8575604581258824,0.7968656256306437,0.683398598270244,0.5606791000371572,0.4385831130595088,0.32590201843680777,0.2593143565924718,0.24880292393494896,0.3001491988313796,0.31917449525467,0.29843416523564015,0.23962890116621027,0.1670193817134722,0.16894742917366168,0.23210950968155508,0.2628065293970563,0.248931317324939,0.22301903369935738,0.26399942646902463,0.31929304438958495,0.3633749455536841,0.3851178313369097,0.4118680399396881,0.44101249517327945,0.5285114720751123,0.6409683881597261,0.7566698289032514,0.8765294199653315,0.9856264306692513,1.0,0.8989520551979182,0.7751902342479648,0.6514023716119985,0.5302349685463561,0.4128537019092846,0.3252436948511348,0.2916914462760456,0.3089999986549663,0.34027575392553855,0.32527535324915124,0.2620787822110424,0.1800512459763195,0.12622393533389298,0.1725266482693466,0.23497835290481328,0.2534622229534076,0.24552496356400555,0.23756677797124937,0.1967375521091217,0.14285675508095208,0.16490509609213433,0.23530140926555276,0.2892629218499798,0.3347236659906092,0.3689049471577688,0.36152184751217,0.3934384143100216,0.4962801498559606,0.6122011064290098,0.7318319246751939,0.8516509919532482,0.9622063349133128,0.9828315514907935,0.882205094183099,0.7639507313759788,0.663891239549045,0.5479305649225354,0.4314235711706593,0.3441301073609897,0.3124016680565118,0.30136077759974045,0.2868033377621293,0.3237691559202167,0.3742011185888683,0.34419646105086565,0.27774306771005763,0.2237558126804604,0.2304032844828212,0.3026414850555823,0.34089242985583423,0.3604509708421437,0.38025044567323585,0.3939191115499048,0.4723249602977413,0.5841502946310593,0.6982964650195553,0.825529518408112,0.8956285365039678,0.8241573839949639,0.7075980468934917,0.5933965197589166,0.4672843580964523,0.3688148154541171,0.33191284748447014,0.32354852529441436,0.2982963788481068,0.2860673428309597,0.25581569583337416,0.18257790722191736,0.14537590847060056,0.18542801967349742,0.24489493888268754,0.29818323174570827,0.2522671566483896,0.19470612270632515,0.2169171039754243,0.21417123380887482,0.17418183800120568,0.20634179096305383,0.1828058612477288,0.25978579425034765,0.37430460875332416,0.48536532591707804,0.607801799290745,0.7323103748978852,0.8086688875292096,0.7105276453568101,0.5870007057716418,0.4745412623447671,0.367177543742907,0.30376234936944346,0.301892175878705,0.28641716891733937,0.24368228607397224,0.19432551668550824,0.11625165382578562,0.05564678756048691,0.07441070837670294,0.13079914166119755,0.17284396266295454,0.18689847453160624,0.19255079530571173,0.14589934137113847,0.08327855889651747,0.03493810072141068,0.07947988093625513,0.16408713742027148,0.24818789129256436,0.2726180580183435,0.22841086304915548,0.1731995190002853,0.19680152057450506,0.23494034147391174,0.3368669163996545,0.4507841942729045,0.5698619338693902,0.69298694110361,0.7700246978146117,0.6882312713757353,0.5709722193796596,0.46143680560868283,0.3855784398886759,0.35434157572526415,0.33619397718779,0.30830124805920534,0.2686594140411973,0.21113162199029167,0.15723672834563152,0.16060585757706747,0.19885728085489385,0.19024582595109418,0.12998386525670425,0.0657044222951404,0.07126138588989672,0.15254023664322158,0.22780324170716737,0.2551885720367668,0.2161365892731646,0.14171591474923506,0.13526253970758395,0.11786861548667016,0.19769840844566744,0.3092974951026508,0.4218760723438737,0.5468011852578245,0.659132996732938,0.6357606483889486,0.513261001767157,0.39467432743632314,0.29451513481925495,0.22960132517094545,0.2156587911176926,0.19824431387723385,0.17230209770108518,0.11863632632332255,0.050192046948384306,0.02674298410940068,0.07822158065441975,0.13110746951102925,0.14096759798312553,0.06936623203662018,0.0,0.015091484773970265,0.09109009435559612,0.16636947921540468,0.20400415737484145,0.18234603304596453,0.114919908062316,0.13046748365136507,0.13883493717797313,0.2234365967908185,0.33474090493701336,0.45048989786978266,0.5716218924737322,0.6883877955956765,0.6857495536154095,0.5725165680910558,0.4485281622218178,0.3455181040717661,0.3004484522756221,0.30715166626507484,0.29993695006511123,0.2830563784645994,0.2378103410172292,0.17556162380749996,HB
0.7539154530404026,0.7209784908265617,0.657339373120041,0.5863058451721574,0.5689574054868269,0.6263957930976716,0.6798475152967551,0.7176122391446906,0.7617681838889347,0.8048988236894532,0.758876764294989,0.6614682344992739,0.5519441533600697,0.5491280098320117,0.6588439517060212,0.7774157775037716,0.9078679839499948,0.9998336043870562,0.966784273497109,0.9222526493311292,0.8790266686180153,0.7893997060944442,0.7160697641708107,0.7036798034410112,0.7071539802137079,0.7019953787222337,0.6947227666431304,0.6356173637524645,0.5959008057589092,0.5703047822112279,0.6174964623966996,0.6797775680766796,0.741943613881852,0.8111483660321719,0.8119693059553041,0.7338869623776656,0.6224292153231827,0.4971541709144698,0.3797974396869499,0.4260809124731484,0.560147939327301,0.6929973368009548,0.8237426840802811,0.9481801829274161,1.0,0.9289628738080924,0.8732590192564089,0.8067803219080467,0.7181765789770669,0.7141689840405983,0.7672600072219242,0.7827559662126755,0.7926471068169043,0.7714339499035185,0.7196326615860413,0.6631259179889053,0.6601910433981804,0.7150911837400211,0.7722527459580459,0.8096027988122199,0.7965518829321763,0.8050817057474959,0.7566368914208654,0.6489388844038269,0.5160846897363784,0.42079692682286174,0.4900581025128421,0.6250273136285007,0.7559732536193593,0.8816305617056086,0.9624947989673669,0.9307566428524043,0.8949961398833342,0.81507833673985,0.738881180925369,0.6869979765788026,0.7359933342489042,0.7966877787043187,0.8115943200518223,0.7808542738031927,0.7231864489742565,0.6693746554928555,0.6142278373041941,0.586843550881722,0.6291960699372883,0.7012555305109212,0.7703954811742277,0.8171840923725893,0.8109387850479477,0.7610222585366593,0.6631834213563566,0.5415771091856425,0.430772151744808,0.4710549772147816,0.6036930927003685,0.7343513966231927,0.875701272428786,0.9896663873283602,0.9813167908636844,0.9045943739647408,0.8547131385758711,0.781454790434978,0.6957281020373691,0.6981397675362531,0.720683017261099,0.6905796748964859,0.6574939030584948,0.5955070866624235,0.5160955452999665,0.43485874150229265,0.36444862670153366,0.2951154137467342,0.2685244348133504,0.34556760991759017,0.47956770068804255,0.5467786048689969,0.48605916704227115,0.35916015635187915,0.34441375153963705,0.42898625190508444,0.5324246505279371,0.5776017820135171,0.5570252013637305,0.453856599610432,0.32440855667335855,0.23655265192972008,0.2413040439775762,0.2179760512563349,0.185148846783195,0.2189619292946201,0.2874452874953648,0.35225336254371076,0.4346240781926394,0.5142403012026726,0.5828659481466767,0.6216740966276451,0.6521599606815789,0.6237304361015794,0.6063259616253354,0.6726925221329285,0.7600411795537703,0.8192535020562994,0.8673755995442147,0.8241498863197472,0.6952152392772319,0.5640483856941692,0.4303777982294723,0.29783065433497846,0.15492454836242553,0.04177461413624206,0.07613607062263439,0.2020718384860345,0.3343909155672562,0.46424798893974906,0.5876141935657562,0.6929334599024961,0.744255941851383,0.7232981412129358,0.6564633344453559,0.584703208176812,0.5190614122263795,0.5104328186587623,0.5484712588654821,0.607245270049781,0.6673559747348676,0.7237577083298485,0.7333200033647826,0.6892706107616684,0.6196906114727962,0.610997504169374,0.6870663294896708,0.7779711503795932,0.8378403537174708,0.8376047343472366,0.7309267988487869,0.5959080415972786,0.46423364723446037,0.33189971349434,0.19698221518690628,0.06921317771061197,0.0,0.09171785579366487,0.23207336207153872,0.3619605545587179,0.48918063933989275,0.6107321846886906,0.706796610111545,0.7095313427073173,0.7204099170690812,0.6920114914194806,0.6344936130647931,0.5810677118338137,0.5787249286896219,0.6317329226227018,0.6890767521298544,0.7168788049352495,0.7129634450026843,0.6892620529669014,0.6393257018523322,0.6420400730605276,0.722780601410669,0.8025193432397719,0.8473140034901312,0.8607676285458985,0.749211987832044,0.6125297513267474,0.4686811469143439,0.3251617567980549,0.1919031559008606,0.06796680889750162,0.04248336588632151,0.1517424014009947,0.284177702736387,0.4211994627810496,0.5507851581817031,0.6698550657054527,0.7344568393441193,0.6914556730139063,0.628623106044532,0.5686920280878325,0.4990618270207454,0.4874226806732218,0.5159052120352348,0.5464537934322089,0.6092680373872983,0.6366241356380917,0.637334268068408,0.6313149714497093,0.6430494737580061,0.7139414033784734,0.8061067811003895,0.84574979534406,0.8582372400672122,0.7779578397713443,0.6438985980659666,0.5124918584352303,0.3819244048525823,0.24437413808467978,0.1191817768043264,0.07953896008294681,0.17865077777698968,0.2848927909937715,0.4145432337857047,0.5421083740507222,0.6552331366304975,0.7223677352476958,0.6835715083656044,0.6360871247377888,0.5948245220227455,0.541432479034266,0.49874096012466573,0.5225195740010995,0.5898883992354622,0.6486358949555195,0.6757485240664947,HB
0.833160414838007,0.7730110508282872,0.8811517987878799,0.9650447486277209,0.8854155098085217,0.7666741646696731,0.607715043458172,0.4388450930803325,0.3016067443765973,0.3514378551145132,0.5070478322277836,0.6352179074495488,0.664791434013746,0.6102368202276272,0.6718457723263023,0.7703109557371,0.8540920186644589,0.9215945661769971,0.9696871051998732,0.9517181694861758,0.826219173516042,0.8257050271683131,0.9761031657855437,1.0000000000000004,0.8839295404482703,0.8028791453821231,0.6582966537932791,0.4953726737360773,0.3458133298469859,0.37413949822381376,0.5190059626582082,0.6445972867453693,0.6472955760985708,0.5951486303257769,0.6506985332891491,0.753241975944408,0.836352874981737,0.8979962332571012,0.9430602168646289,0.9561203940376295,0.8281931268957439,0.8228395475699695,0.9674141990142977,0.9705245966986484,0.8566634970020801,0.7445108778055332,0.5850831458288686,0.4259940762309804,0.3503442098680738,0.46171342931443204,0.6099028150042543,0.6450675195202584,0.6085790496498231,0.6425043491008764,0.7366006773683655,0.8145782810642967,0.8770704866976073,0.9458128823131795,0.9429577179855286,0.8131610045921986,0.6720064069605325,0.7272928883941887,0.8605099299009491,0.8807359792420795,0.7841411947490311,0.6441153231919281,0.4790716625790128,0.3519123246852902,0.41898390958071996,0.5573118787452849,0.6335289482169979,0.6166991641001234,0.5585226651358672,0.6058803754951056,0.7082098563021488,0.7703844253147372,0.8125172259323099,0.8407531690706409,0.7239284240061306,0.5487222572565669,0.39040650949354827,0.4041253408769703,0.5725687090038778,0.7450834553398966,0.7956341705924341,0.7083888279436272,0.5725639206846287,0.4207904126874151,0.3202610066375735,0.41969146766029164,0.5572537869241136,0.6006527952982266,0.5961940474308984,0.5733214973918295,0.6216951442253946,0.7294696790587216,0.7871686944779821,0.8173733633303186,0.8613599774533776,0.8030138182833952,0.6522264919997278,0.5228680272609418,0.5840459721390174,0.7487355120936541,0.8058899712031682,0.7259858595424005,0.5877970084117545,0.44320752512107253,0.44495125538151203,0.5912864257077151,0.7114243128227358,0.7198564184628529,0.7069904091234971,0.7833572721088351,0.8654157937322835,0.8558096893399814,0.7708402779697607,0.7751593580016585,0.7085009581054567,0.6441653378870131,0.5454193449732543,0.5441069238279566,0.5541254053573135,0.43942884708640806,0.28790281834443787,0.18936331096278058,0.2845287853262768,0.4233541532445608,0.5864345978002046,0.6719082490016999,0.5870563587765716,0.40701738435986146,0.22799975252415017,0.05127240572717673,0.00027797081674574287,0.14358077145301307,0.32482747230701925,0.49902119904859754,0.6453479130472433,0.7007354191911888,0.6413628802568292,0.5293773935027044,0.5498301629682949,0.5234632780087622,0.432803648190037,0.3536540582187593,0.35063096405951777,0.43367590798234934,0.4354009174221436,0.33867066289758574,0.20234432511420763,0.16025193230267742,0.28030694863452466,0.4290019474828002,0.5710513636591754,0.5790068349841566,0.4968764113087363,0.3354726341769778,0.15100503122837283,0.0,0.030347378059702557,0.1927008921821196,0.3719581716714573,0.5501238253909175,0.6878152822570884,0.6909086840747154,0.6755432544941589,0.6327812102264962,0.5706833920455447,0.49099387678809414,0.4447761846289544,0.5024399759709448,0.5127501155680481,0.39533892360858225,0.25355066357524203,0.2459793795291061,0.372111585313498,0.5311192536485376,0.6894451369625845,0.7595913547877577,0.6394907714074969,0.46490959774989715,0.3101559937198499,0.3357120843405057,0.496476118381473,0.668377887281193,0.8209248147489259,0.8331593621732871,0.764362924468716,0.7343454968421459,0.6453708918025138,0.5562636258269,0.5232484939027144,0.5678372818658626,0.5029612371622028,0.3456167400119141,0.2160518547531991,0.24501739422637625,0.3925014528790718,0.5599429208381599,0.7111509111563223,0.8067211642929104,0.7806342280420786,0.6028125724341153,0.4168381830187524,0.28835947471711565,0.36589997859104173,0.5381297481202436,0.7124679206305631,0.8363501435907947,0.8255473356801257,0.7663206735713279,0.6807494490589794,0.5740980962603475,0.5178606309723888,0.5593825474529286,0.5083767459237167,0.3637695093511284,0.2242495477776929,0.20667789336087505,0.3389035039459367,0.4968870104340515,0.6543398124156097,0.7752722609932796,0.789545195091133,0.6390243849016941,0.4551897464877066,0.286500706911633,0.24727454531812265,0.3951384872512045,0.5752529234842201,0.7535581491833994,0.8806526581529583,0.8542544394848206,0.8028635767883046,0.7291806248707449,0.6342197564564294,0.5411529771748356,0.5531222974413228,0.540591565641797,0.404010364710242,0.25557953935705235,0.2014087435594485,0.3144397443892304,0.4763247970209026,0.6471789015028073,0.7881296241433091,0.7622734105943416,0.5991238938542285,0.41762539377085295,0.24886095681829623,0.22086097681592198,0.37490399063078383,0.5558083218744101,0.7167832220994335,HB
0.8812731259101347,0.8996341908329601,0.8904219954281902,0.8573057306173715,0.8337532760751609,0.8146951106873377,0.7745746718340658,0.7448637172268622,0.7743286628744268,0.8125196524317466,0.8233332446436832,0.840914479943536,0.8510708524798274,0.871499587033487,0.8336789861714344,0.7518025434426303,0.6633684403141198,0.5713831323192757,0.47532674187282,0.37902692544132544,0.3166776989365545,0.38015845513090873,0.47831799489520965,0.5801760155756912,0.6745741747271521,0.7636841102021934,0.803987968124338,0.8136232595100392,0.8251430192103995,0.8386960515119892,0.8331452241030053,0.8149611287726566,0.7828115078741205,0.7297627348762294,0.6992329916707809,0.7308429695865566,0.7881052553385979,0.8240406869555137,0.8465329049305719,0.8543158778593225,0.8759891968319355,0.8697800214872424,0.8150720273135497,0.7287613479757276,0.6358058439437255,0.5370042712037897,0.4338263682605821,0.3388487134491551,0.2806646786751412,0.3552741803444561,0.45606792866995227,0.5524017178654892,0.6504000767674343,0.7427942685829219,0.8100025669913109,0.8288599731507202,0.8426509142040419,0.8671507157813465,0.8908652089524607,0.884170682829011,0.908812502696023,0.954664314226253,0.9821945004486536,0.9999999999999998,0.97762524340709,0.943848046821649,0.9025052164523653,0.8774217516188407,0.8474215302708081,0.8140958915549146,0.8301681361252975,0.872078269416096,0.9019543382531385,0.9229338712561093,0.924689996866036,0.9294272315891761,0.907077643151317,0.8400947468273021,0.7482417340158392,0.6573041466122489,0.5600344868774652,0.4596020125205458,0.41632500419148255,0.49587549158945143,0.5912494615304174,0.690735359667292,0.7855038275728383,0.8550462813370616,0.855609590556939,0.8729003553472177,0.8774708333448717,0.8994659304105312,0.8916413451336582,0.856674746586849,0.7904513196481202,0.7351351263038777,0.7405011937957471,0.8022617316372245,0.8565435150101408,0.8781220685349698,0.8542981096513758,0.8066595172150961,0.7716523717220796,0.7122404296824039,0.6280506084603512,0.5367926717247085,0.44299538616748224,0.3481968244750133,0.2802607357801219,0.34089901924635213,0.43632563084422205,0.5336275685685243,0.6302144103356739,0.7249169279768017,0.8017072921107016,0.8054262494470674,0.799501234199129,0.7906266005217029,0.8183049444580994,0.8451196085763095,0.8339888449567263,0.7849311280721645,0.7544189681387776,0.7296677886141507,0.7191067118303989,0.735749760862765,0.738062250884989,0.6678088594185922,0.5728556632554478,0.4698095358432264,0.3681507296180033,0.2721018749113624,0.16908700869818905,0.07357870575006098,0.0,0.0403466258166123,0.13421794376084972,0.22975102119845947,0.3240922050557362,0.42074034455301046,0.5167316764853618,0.6169545132800094,0.692786150608776,0.7161285643740996,0.7581250505944808,0.79531265017984,0.8032238952301725,0.7639344016469201,0.7026637818639936,0.6489199979733378,0.6330109690758738,0.6947873250828314,0.7558241788888269,0.8044445450119044,0.820101538852114,0.8179638938191907,0.8046611050056474,0.7775105572398135,0.6964435108979361,0.5984906248774586,0.5010491962947186,0.40164333778835704,0.30416255903943235,0.20668606092587138,0.12961195000592873,0.1616080516084717,0.2546918092219055,0.3525404656854034,0.44868351358616665,0.5454704790883613,0.6378083368787675,0.727010583789452,0.8139274728974797,0.849748533653442,0.8498409924226331,0.836579574467722,0.8160243387473669,0.7733579978374332,0.743183405454203,0.7704567201142682,0.803868456599315,0.8347788621071486,0.8741701912311999,0.9119537357665972,0.932734150641634,0.9199219215345706,0.8844517607281055,0.8399266183924554,0.8295568508612796,0.8407898252180137,0.8073941840806709,0.7759564752454768,0.7696066630923919,0.755958239505401,0.6820694419703031,0.5879477024655131,0.48625968587858615,0.3888296835289007,0.289042673684734,0.1894044513198585,0.09631008687518738,0.050893380241695096,0.12193898835712913,0.21736789792708344,0.318420341255538,0.4139998421671993,0.5102935690357631,0.6033575063957228,0.6963463139272343,0.7816406128048665,0.8086680863083158,0.7922779170047589,0.7738946427071516,0.7598960852154328,0.7256046783206922,0.6689336888044548,0.6403928034883,0.6621198050316717,0.7099521865405927,0.7460641488192541,0.7761048002996993,0.7809404456404916,0.7698638462161675,0.7462495405328213,0.7121091209649564,0.6544916636681484,0.5593597944524134,0.4606882932119205,0.3562246612629416,0.2516513625939003,0.15087466968644625,0.06370529715793127,0.04854134989721848,0.1283782813215022,0.22376989577843953,0.3191522395340567,0.4145468490360009,0.511018096802526,0.607573217150313,0.6975103109596574,0.7842749243620377,0.8003939951229204,0.7839013600359082,0.7597674712008389,0.7544668189567068,0.7509431457056137,0.6983721291809841,0.6689617742788896,0.7017173505053107,0.7455069258889775,0.7618282381163133,0.7801906868047574,0.8155839642771758,0.8288969615221886,0.8238171116508781,HB
0.9604694582947386,0.9102220864335613,0.8654446259119937,0.801675615619055,0.7898713559007353,0.8370494008553826,0.8684940838117081,0.8751040646619728,0.8755143222411439,0.8385185030825018,0.7858722752557243,0.7707581842254072,0.8070651071572648,0.8491074115463695,0.8846477480697537,0.9190554298861193,0.9564100235101556,0.8973736254455091,0.80176716681523,0.699526313558529,0.5970415397822817,0.5226683837984354,0.5720510058935948,0.6718543778947383,0.7688874527281682,0.8646879958754234,0.947006931168582,0.9413038158725724,0.9010451533438533,0.8463782198653016,0.7947298606166566,0.8138962615603251,0.8583203694054156,0.8711504129013161,0.8737179777829953,0.8538129528737379,0.8055929369147059,0.7839211904491767,0.8166278144056742,0.8581524966585412,0.8932348235199041,0.9316160267209872,0.9701730850972519,0.913974867069316,0.8168560919299865,0.7169986424627877,0.612162662935557,0.5255430617028689,0.5661369994065779,0.6675927788922398,0.7643159874926824,0.8616698978058082,0.9505531875012436,0.9762558581647041,0.9215715956921595,0.8773701849948541,0.8136352829160587,0.7748232223688352,0.819756762397785,0.8671039428614526,0.8793062708479846,0.8822955913614734,0.856742408179227,0.8261560495896592,0.8357082099054038,0.8672526860471901,0.898128955868934,0.932588905881854,0.985863669531784,0.9490744763657106,0.854052761577607,0.7564385330101622,0.6524159185612233,0.5854584973254637,0.6482479936302619,0.748133969628253,0.8455475575217688,0.9403173821977506,1.0000000000000002,0.9587223406438348,0.9099693467230381,0.8562831963204776,0.7985833887960501,0.8101485558012842,0.8571864416822337,0.8830242024484578,0.8945396966774815,0.8740839719220179,0.8278724296289259,0.7965899593481676,0.8150389339667847,0.8556913130523431,0.8888239249571288,0.9202910606888015,0.959759765364572,0.9103477126285928,0.8126479142186922,0.7077814322294391,0.6040035165864734,0.5559967757830824,0.6312432414916302,0.7326858761008155,0.8289650135955278,0.9215882726709377,0.9710465072591683,0.9313699681123615,0.9014626493876221,0.8405409883997021,0.7883824467419338,0.8192404125506902,0.8656015353007844,0.8805879993959334,0.8839624981868885,0.8361418318562892,0.7960778122372758,0.8294438171235683,0.8416598538894207,0.8295190153023397,0.7783890611198454,0.7425184304406403,0.7736959796306611,0.8379378048882411,0.879509016490537,0.8417168060528601,0.7462455843403377,0.6484085185108117,0.5471947748614567,0.4493813771214772,0.3457465051335198,0.2571963412452851,0.16763402597481059,0.07311902452168662,0.057987571722463827,0.14562451057140424,0.2495673101695235,0.3467832794125367,0.4493413948995222,0.5541725338795631,0.6533058568825356,0.7533273353071315,0.8466951039388435,0.8667720772836554,0.8474162281475763,0.8113287790263293,0.7694729316610525,0.7462763585172691,0.7695330783983765,0.821749467689826,0.8584708228101361,0.8511591388232826,0.8258368353102039,0.780549268202446,0.7455853477163044,0.7745680312820382,0.8419558121767645,0.889292303380536,0.8806898865994806,0.7924163204765309,0.6878381734123522,0.5838024272475777,0.48679186797803187,0.38381381181082896,0.2804890839703327,0.18400684936134915,0.11033665645395652,0.15592384798671355,0.2515652201100669,0.3557930518702799,0.4547629077290505,0.5550813034206077,0.6597728498775504,0.7584493868830753,0.8532017103264307,0.883146174966501,0.8609799761857799,0.8320227871039898,0.798056817589645,0.7856116318915731,0.8094460355739739,0.8416322611552656,0.8426892581607619,0.8190994372232892,0.7629526747791902,0.7307507485479297,0.761390574681063,0.8197348358832746,0.8709846786931623,0.8752875724713454,0.7935994625411991,0.6931790443033445,0.5962418551501085,0.49326703960357743,0.39350280083989597,0.2940240204925937,0.19088104850847465,0.09430356496922121,0.016819085427891567,0.058832315099091925,0.15342481284812037,0.256475967708111,0.3614713021820526,0.4628217728426416,0.5608812139060124,0.6655064534284583,0.7674356865970737,0.8553459052130148,0.8732216814901916,0.8414699283423848,0.803783714146574,0.7617572233834844,0.7415795678203121,0.7646657607099403,0.815446955755087,0.841748941203857,0.8329746699276701,0.8168719197020471,0.7681379224849469,0.7426729791322784,0.7839972602150957,0.8507664660222318,0.8862013340862911,0.844037896264132,0.7423609944169804,0.6422163660843068,0.543087343623984,0.43888490128137936,0.3414634475456806,0.2392631489872934,0.1366339824864411,0.04239344608914419,0.0,0.057668529538206004,0.15106231976442475,0.25572460113138673,0.3604977014271533,0.45908976885762875,0.5598137358379172,0.6647802036946044,0.7674421428750131,0.8466919188959263,0.8518120722223994,0.8179398964504188,0.7759595846403915,0.7362194436504192,0.7298883242058527,0.7733997695802968,0.8227241927230511,0.8412356506545682,0.8356998355962548,0.8056438506013499,0.7508665525124147,0.7271299898307793,0.7726683251114292,0.8401499393623961,0.8806072173547497,HB
