0,1,2,3,4,5,6,7,8,9,10,11,12,13,14,15,16,17,18,19,20,21,22,23,24,25,26,27,28,29,30,31,32,33,34,35,36,37,38,39,40,41,42,43,44,45,46,47,48,49,50,51,52,53,54,55,56,57,58,59,60,61,62,63,64,65,66,67,68,69,70,71,72,73,74,75,76,77,78,79,80,81,82,83,84,85,86,87,88,89,90,91,92,93,94,95,96,97,98,99,100,101,102,103,104,105,106,107,108,109,110,111,112,113,114,115,116,117,118,119,120,121,122,123,124,125,126,127,128,129,130,131,132,133,134,135,136,137,138,139,140,141,142,143,144,145,146,147,148,149,150,151,152,153,154,155,156,157,158,159,160,161,162,163,164,165,166,167,168,169,170,171,172,173,174,175,176,177,178,179,180,181,182,183,184,185,186,187,188,189,190,191,192,193,194,195,196,197,198,199,200,201,202,203,204,205,206,207,208,209,210,211,212,213,214,215,216,217,218,219,220,221,222,223,224,225,226,227,228,229,230,231,232,233,234,235,236,237,238,239,240,241,242,243,244,245,246,247,248,249,250,251,252,253,254,Target
1.0,0.9265592862116547,0.8705536131715839,0.8649790198669494,0.8968624761323993,0.6599178885389692,0.6719597476732995,0.9782634390426412,0.9318290119207349,0.8661254613231748,0.7853868836583093,0.8066477259499001,0.7019933266913256,0.46773642314313224,0.6984954285275891,0.9245155781385077,0.8516232565166693,0.8335497824899811,0.806330473083744,0.7947672892944349,0.5080342857858877,0.14290645898615073,0.17747821450909196,0.554981181871754,0.7668870999225137,0.7237392824836995,0.7975029998566661,0.8504777127521281,0.8408689889155319,0.4922153878405807,0.10521706728166913,0.1666820661257481,0.555681194770467,0.840734155145118,0.8250420034911885,0.8185322067193581,0.8815781092432957,0.9115249253583324,0.7420346341522053,0.3268702786804051,0.1268147050799413,0.4435871111266233,0.8022044237469823,0.8614594730260863,0.8230436576975917,0.8611595316835388,0.8606435211566656,0.7282180709245467,0.3224601999056874,0.08750458367698033,0.3786317387230944,0.7439660399811179,0.8150255252648266,0.7531030576283402,0.8127437023431734,0.8175054546483094,0.717292047921644,0.3187940213044239,0.029862706180803333,0.2745857301833087,0.6658003797104222,0.8157988570246248,0.7451961401836484,0.8043049859552949,0.8182650569792578,0.7495067435637985,0.3728821800954204,0.031755685350714935,0.19361771678758466,0.5781095546668196,0.7909895014889943,0.7490840805282852,0.806624699446816,0.8433766216622443,0.7402925670978695,0.3443683456274712,0.11085598307851185,0.40378524740058097,0.7564129357004319,0.8219225217285779,0.7672505647275869,0.8499124818107142,0.8772766635233811,0.7893049881785099,0.3948650190378763,0.09737832238145316,0.3309353546049273,0.7058018745860477,0.8044052667586199,0.7513638788367378,0.8232619146587845,0.8334147912999328,0.7218820713030707,0.3238281875863689,0.040872912823779695,0.29117773032278105,0.6716061283847117,0.7864490257860501,0.7443272310781504,0.8325083192424738,0.852540457229159,0.765098079619053,0.38254173371601496,0.03550827912799226,0.19230181025911575,0.591663093267571,0.8073081057689449,0.7700404334135673,0.8368842820965108,0.8386937494186455,0.8180932110394532,0.4840447326603886,0.12773108751266193,0.23567506977076713,0.6247395562413252,0.8131273775181354,0.7458888280785227,0.8208048303264015,0.8557765217757378,0.8436826769700803,0.5117037195366769,0.1026172369232552,0.0741566887613414,0.4593114108396529,0.7903121218336286,0.8086432588049526,0.8001743824246959,0.840923522653477,0.85145468079316,0.6300066830109652,0.2146856375185493,0.09103900160176737,0.44293989437325465,0.7639252536640704,0.7725931526046883,0.7815815116426266,0.8300360880438662,0.8223301840560622,0.5194806257015387,0.12674055651337335,0.15003698046081337,0.5319131778327388,0.7948952503372599,0.7568371351364456,0.801235611587751,0.8498271796787509,0.8758690544187568,0.6378007162154007,0.21233706742260317,0.0,0.3118987043773409,0.6988168326646587,0.8212317297363407,0.7627030483293162,0.8359386794896178,0.8522051753520399,0.8796964673275529,0.8504104914179658,0.8278828876404727,0.8638651904220949,0.6501066889388436,0.6962987310638367,0.9792255779657417,0.9194005715462616,0.8823319053384402,0.7969036972718928,0.8409139815175961,0.7767517700999205,0.5400292094312533,0.7281898503558093,0.9587558722995846,0.8824324656317253,0.8424021660411143,0.8032811662064661,0.8452863677034999,0.6357038613399557,0.5604008302546506,0.8869352186043546,0.928799621887205,0.8809679025575299,0.8386509500232477,0.8599784797410741,0.8168382204314424,0.5875256467103636,0.765187620189792,0.9988229585204218,0.9104296477505556,0.8685205789622348,0.7940493332257714,0.8622022018106033,0.7348100385064993,0.6363242150934612,0.9249258988937636,0.9304615781120313,0.8826365366766811,0.8331517028333391,0.8346252324523569,0.7940022568797402,0.5118298205779628,0.5866047858292787,0.932284056834185,0.9269579130572543,0.8800974669389434,0.806838108032673,0.8226173210404253,0.7761721822227876,0.5572520629059736,0.7566507061757419,0.9482623583881398,0.8754148148796848,0.8420199277432627,0.8027317971585819,0.8549741920422516,0.6390036443632134,0.5466740205425682,0.8816046364435286,0.9871548105833914,0.9015271067376049,0.8439389844373595,0.8451788629667436,0.8566157847322386,0.6107526260175729,0.6345171204972346,0.9493853910411356,0.9134403469361436,0.8568240790366404,0.7969979229108739,0.8302876994856485,0.688924798854317,0.4060117545352462,0.6018210948444147,0.913058362587621,0.8751150980269182,0.8501936517349498,0.7924256143016688,0.854482580772397,0.7316819466679536,0.43503770034084444,0.5762003171691903,0.9122265273603629,0.8983506733059603,0.856184896679107,0.8033506214374118,0.8582739414500755,0.8072509595346682,0.5546047527903899,0.730064124484006,0.9775303394937929,0.9006527321596778,0.9035143664224383,0.8628458114348359,0.9280218113718817,0.7734854253929875,0.6220160298766086,0.9142454704484544,HB
0.9106072043154425,0.39723931558234593,0.19550131730232279,0.18857019299117228,0.21430725511502935,0.2680017319068857,0.33188804157102014,0.401153220948288,0.8056102397269278,0.7179838183956786,0.33016808094323613,0.21585049926397692,0.24119264844093236,0.22017906430590228,0.1862990686733057,0.2612078898590271,0.3754785201305264,0.7744555176916861,0.9052972808090725,0.42587314947251587,0.25542606617304786,0.26148108505833045,0.30326368899717693,0.25022840795156887,0.2365639498076506,0.3475291499375084,0.518260037926149,0.9647914538049123,0.727659832858869,0.30723651231583204,0.19376483857810634,0.20479096885269632,0.19317290528860642,0.17693582302525757,0.2978079084727776,0.37855650797765694,0.7168186106091436,0.8647659366743903,0.4306363190109286,0.23104905974870737,0.21860879357036556,0.23693176457820275,0.18159532575210813,0.2519798059201892,0.3169158958748386,0.5496310755032576,1.0,0.7180271851616196,0.2777467515835985,0.1618915543338777,0.21309830238914707,0.23960191368044725,0.24101617033746292,0.34238390130014995,0.4092768249018479,0.7916906406393709,0.9301835050557701,0.45443110541781095,0.24317992020046608,0.21824159462997406,0.22205803200039131,0.2011248274851667,0.25242441660492876,0.26757765828152813,0.16506279746415364,0.10937331966500441,0.07033961714535275,0.07681028036326776,0.053723153533211665,0.0805639500246853,0.20825109449339907,0.4487060684477897,0.2588408636100126,0.1985224290455987,0.09595779324457254,0.09428945617224249,0.09030478631837546,0.012712949807470064,0.061418927513229526,0.2887311385339979,0.5750520796873047,0.2547612906180281,0.1540597307165541,0.04581632676319103,0.06882183970945022,0.09334921186380685,0.03999193995225969,0.11175530621994945,0.178669014300735,0.40945842669293686,0.23766947004859018,0.13980721227433301,0.04934048019252435,0.04426659162356783,0.06840755822875044,0.0687033836241544,0.13549150315905356,0.4068263702267294,0.284961395248986,0.18849375403359536,0.12128472453685202,0.10590769432533609,0.12523602777946774,0.09567761631299199,0.09075367590403172,0.23772497056422903,0.5180053333037353,0.2529429918206225,0.13790611607778613,0.04639055752262333,0.07212769329343738,0.062200452949108254,0.041634199484475776,0.05380749301494836,0.17712565361129684,0.4206416523849219,0.22074566788847072,0.17068274946330142,0.09599190425792825,0.08074742625068021,0.0758591272123601,0.030709216819131413,0.1034512076747296,0.3725057517647663,0.4172408280708977,0.18657809239659695,0.12165815863012419,0.07481101294158377,0.10544130146332753,0.06400746133813895,0.11721080299603903,0.26944801426419307,0.4290495424502061,0.20319121139850616,0.12441012059084011,0.025338993147173028,0.0396969594913088,0.04031879041449926,0.0,0.07328357883474945,0.17136807206439508,0.46993934830384676,0.3041684295983771,0.19947688469892633,0.1346829696924594,0.11155887108020934,0.07561417291439065,0.03763210217269286,0.06927437449774398,0.3669859408197089,0.44901043406993635,0.18871474791323273,0.11518193390505838,0.04589467104877043,0.09316356099369294,0.0626001312962603,0.018473696656373217,0.12978009072156738,0.38999291942301406,0.2942408106483816,0.1916221946688501,0.1341017946053671,0.08358488965126609,0.10127851602438875,0.06861472211761388,0.08839329225929315,0.21561249201341948,0.5299474895299547,0.29568185266315083,0.18876136412593603,0.09457254041887042,0.09607275478944466,0.11147404821168605,0.059312231989490094,0.053294414569129867,0.048092795700446,0.35454470566098273,0.44502347186673274,0.16243350092427322,0.10786243348856006,0.03479924694507286,0.09629015762896698,0.09491131818818355,0.0483102905865036,0.17940363379942692,0.4109485495094063,0.2384874009018878,0.14577363128031662,0.20294407108222412,0.301021562097858,0.40944959346825405,0.8282556877490159,0.7576821391987347,0.3112637263032303,0.21106946730414,0.24818702991305663,0.24056038931086565,0.19500618411188908,0.25732223410112764,0.4032085747113001,0.8642464178062359,0.7727088742477108,0.33013288656734785,0.21501099464974072,0.2493846571018441,0.2557686101526877,0.21671600450519612,0.30135559340317153,0.436817350346252,0.8817635790816483,0.8059322472812442,0.3523760022138416,0.2313249016151202,0.2307006200822581,0.22983605729158052,0.2382422576534724,0.30796322027152767,0.4212276529359502,0.7966772262123429,0.6324768186318117,0.2617245301625579,0.16384543415183783,0.21347089800540164,0.19843071205187846,0.23511623931540537,0.3114622658193533,0.5864705616547723,0.9920921305022232,0.6443222064384644,0.27033202613849916,0.17241149641831788,0.23866880948762814,0.26249895558972014,0.25764696563040745,0.3361087348364413,0.4701294151903772,0.8966145878996952,0.7784825774032318,0.3366766732775437,0.16165938524176537,0.2049409587700075,0.19086475948190618,0.19047035939131796,0.2805094223531177,0.4397603405970312,0.8777597590264206,0.7550362896438911,0.34170385710673035,0.22219210560943958,0.2381534239218448,0.21905425433879744,0.22019480547651327,0.2949150430434493,0.4251669607775108,0.8936288945556692,HB
0.9969226542765208,0.8966507061694275,0.8481770974183895,0.8640232130326015,0.7450573091086532,0.4800919388045838,0.7921488030700676,0.9626563552738294,0.8703566158260576,0.8354501282808935,0.8443256068120195,0.7786838148249569,0.40539245619907505,0.5481036109799506,0.9357993330280434,0.8964254510505543,0.8587285193367267,0.805323463845256,0.8658807510853184,0.5769211336525886,0.3587031249991909,0.7410820937373996,0.9666103769780328,0.858583238978792,0.825652426625777,0.8003038760564938,0.7575765058237403,0.42141852601854246,0.6062024081217476,0.9147072118441173,0.8260767904421051,0.8021837072643734,0.7772882959447676,0.7952191753258484,0.4731818240826994,0.6020209080632417,0.9333083084243261,0.8657503912764024,0.8536221820760364,0.8408062625935642,0.8519772547137341,0.4830651273041878,0.4311998772768353,0.8563297971475423,0.9405565253513766,0.8627377334861062,0.8278180621931372,0.898245570622747,0.6948638203306061,0.48046781549524853,0.845890787399723,1.0,0.9115770093672546,0.8939292749597583,0.8739848064934266,0.70842829529336,0.5423258151604464,0.8883747294187896,0.9255027693900189,0.8411784565748421,0.5607650230195533,0.15769696778788078,0.13892583344369736,0.5882735482502435,0.817336366296942,0.8546060687869894,0.8638700813794715,0.8860515877922581,0.563525057691461,0.12348712271767248,0.23565176653727204,0.6843953273633729,0.8267835721436501,0.7919219109031479,0.8211916895278835,0.8232072027209918,0.48939947109938964,0.07911191600521295,0.2573534974202719,0.7063770775715832,0.8133611130990872,0.8049404160720892,0.8107994749444021,0.8168940259391262,0.46219608397928413,0.03927241208813592,0.19712342494756208,0.650968392310014,0.7468658104118224,0.7446282401954862,0.7727045036555777,0.8015588941223748,0.4992479612870435,0.0530169419738008,0.14347207906958626,0.6050913631802564,0.7622431400082839,0.7647602985399136,0.8111701938742459,0.8269230495448654,0.5611462129186338,0.10920684708963213,0.05330558134406216,0.495548908436529,0.7977047554448837,0.7586996899298064,0.8232848872201515,0.8431101709169919,0.6943292645742682,0.22406796346235935,0.062246236712914405,0.4771896648453212,0.7999747938573669,0.7682135866944833,0.8303480270975245,0.8412245930266511,0.6748966929402849,0.2032252246818227,0.057987199806181944,0.4458276404811734,0.8018001918361439,0.7803584072605116,0.848209370467202,0.8711852085647456,0.8135262472105098,0.36644072128143523,0.03287896559402048,0.3322325089169006,0.7495878073526454,0.7654957467266996,0.7969046536270361,0.7994815477940584,0.761309503979475,0.3381326294384872,0.0,0.2926197395615826,0.722929817763212,0.7516523202444765,0.7791713055338665,0.808858631080821,0.802501640105014,0.4005317359484818,0.03679626439956196,0.2972526655701614,0.7261779720953938,0.7596361270878254,0.7942234632845739,0.8172655014931869,0.8227915558381589,0.43037548804953396,0.05101237387515434,0.2922782363656813,0.7345587228994845,0.7904403819525623,0.8202792162149835,0.8467359826725598,0.8160264363900658,0.4159236350694494,0.04822206729805345,0.3044967383406306,0.7349283715357726,0.7634565230172459,0.790420129595923,0.8123059665413064,0.8278143056789324,0.4590673247764996,0.03756871640730308,0.2022045989197364,0.664717411876649,0.7827323832107886,0.774783187295492,0.8116418910801273,0.8341766351188786,0.5052181795930759,0.07334964958193935,0.16159460296579709,0.6118493517613517,0.7896698918837217,0.7718687904770676,0.8077795564295536,0.8168429431935207,0.47248630207216913,0.05059452398327047,0.20915592593822163,0.6671423123142879,0.7821867013791486,0.7953686507446711,0.8183031104386291,0.8154458501599948,0.4715665685299032,0.05510506620178657,0.19497497921703766,0.6512919146057625,0.7685474129459795,0.8031935600276889,0.7898107587550203,0.4702595725924589,0.6811050608638076,0.960717600592299,0.8685399036882462,0.8491859409664697,0.823003377664119,0.7957070210385144,0.523407932978259,0.7800213532327311,0.940917511942372,0.8494544056934237,0.8045146367484888,0.8528169056120345,0.6893633062082933,0.4009581433035624,0.717139463928512,0.9602007844166185,0.8592077029942717,0.8216003951823387,0.832490676636193,0.7743702325444475,0.4390265206326842,0.6352266564797127,0.9562903717421858,0.8699485058854393,0.8406193282108279,0.8057861632685173,0.849813434907108,0.5888828276325071,0.7863868462223396,0.9689041090560089,0.8928912845560071,0.8457803825871233,0.8613647513529077,0.7745411559181725,0.45826980251215443,0.7028153751850328,0.9729281642767931,0.865455196307489,0.8315486861721209,0.8063010348401591,0.8213484012438415,0.4831714815482837,0.4365043031503909,0.8486480432550132,0.9248205460748729,0.8408824589070487,0.7874026076085938,0.8368065274307499,0.6913380969920351,0.4794817858744196,0.814693250887808,0.9431140305950874,0.8401191677873967,0.8188456799881729,0.8380788099543204,0.7810792572133425,0.5716046071233349,0.8898450407381966,HB
0.860821931775984,0.5359441778787746,0.7148761730263615,0.6654840455965383,0.7986381840342025,0.7341276777847936,0.48282418110251646,0.6193053922295846,0.7427055618337244,0.7974664733936923,0.6164253034422966,0.6633095422251083,0.5591236608851604,0.8384997015318918,0.8108021776695722,0.6342715970872765,0.7704492872359214,0.9230947111439027,0.857087440614178,0.5087457192645619,0.6873598446174167,0.6552460800687641,0.6433004717968451,0.887957784370478,0.7538450626386153,0.6063546847902854,0.7036714958038921,0.8494474591183092,0.7114561279522347,0.5823670940175747,0.7486269434718844,0.7182775566812909,0.8725000262808438,0.7040063749807377,0.6067162714105843,0.5192859404146906,0.6848578162223733,0.7803700446203328,0.5128684493776055,0.6577895601052361,0.8388784872592367,0.8201541104701358,0.6027745829956288,0.7220009723150227,0.6774683809764133,0.838489999179143,0.7531492748211237,0.4937143700954367,0.7217841020237286,0.6760451262723892,0.8374906931727208,0.6576269440469469,0.7365811383376037,0.7818029325275759,0.8844489403904889,0.8580460165360906,0.5195302226394469,0.7265949312538229,0.6921553311808806,0.6427161001779913,0.9114810711030366,0.7671334769848803,0.6408866200633554,0.748222887517942,0.8791997718721278,0.6475651274511574,0.5895738855586536,0.7168626805022509,0.6861865109132177,0.6775607658115046,0.8823837215320678,0.5670855455220449,0.6161422919984467,0.7302068408429596,0.8424616660146489,0.7970966656803311,0.564447326350141,0.6815372430652351,0.5630490443041358,0.789441707811247,0.6762814851649805,0.6607219404641267,0.680534355761452,0.7723730788976155,0.7082987479216989,0.34456269004694606,0.6203505501858153,0.6759249863373054,0.7163580530031588,0.6781111563213056,0.42781126024780747,0.6345463801084357,0.8809251510757212,0.7908998809427281,0.8502797366093375,0.6298984295874623,0.6734447565879451,0.3517291612161153,0.13365785435165156,0.49797928831662563,0.5198557896814697,0.518511490449654,0.45474688921212447,0.0,0.2926689797750113,0.6384667314040513,0.5114412028146531,0.5121388391105937,0.2974227452130096,0.6025721813128948,0.4817138342360683,0.4532893083979954,0.33646508754674276,0.22235145277052792,0.6718622361615862,0.6322048885596061,0.5740721449590254,0.2369221997500457,0.20841955944420576,0.6840321798010169,0.5406845729368213,0.5183444408068443,0.5770747815835584,0.38368528033820715,0.2645080615306932,0.6717694188167913,0.6353974239177038,0.5379340140659945,0.29667781940949434,0.6203332652887079,0.6626562828515086,0.45990363282993973,0.5931271719121476,0.44834035136980566,0.24288139378200846,0.7065901029015489,0.7086806523998472,0.6191875837642815,0.5383322808928286,0.40879121630897464,0.6685449201258953,0.5138406335602235,0.5336948062203479,0.1535526868632835,0.2415611872223069,0.7140910701995189,0.5817142894505434,0.5622894406992209,0.479819029189378,0.31776544918338434,0.6691449223971642,0.6433849925613826,0.48283527999646836,0.10221416657747362,0.3126385222806758,0.573619523739497,0.3264230200961773,0.4185625234613157,0.34743627629698803,0.6558815153869624,0.6229417543894957,0.5829545589311964,0.4515872437968116,0.22408109391186182,0.6222900129040045,0.6312346649539382,0.5069646855273064,0.20803698231499146,0.4429254980152155,0.6428426510114162,0.4341156955866814,0.5435064278138704,0.4317415832209277,0.14452650413393187,0.6087931550324894,0.7529101907134663,0.6208311992779167,0.4329581508406126,0.3564135444851164,0.7124298633677393,0.4805614862835639,0.43474566178392493,0.45588818495331074,0.32458693768471303,0.6413419161045484,0.5083323958758719,0.44176619567299813,0.0444085055929242,0.25608185218897406,0.6904874090170363,0.5431783742432863,0.5709001496667048,0.3784289827440168,0.2864884027109613,0.7791957812202339,0.7887474264378502,0.6907944521212688,0.6627430036820243,0.27680205945710723,0.3947095856952907,0.6807096912534547,0.5183189346480166,0.4943363247749981,0.17544753178004635,0.5132789207850399,0.6158739751271778,0.3817823415802568,0.4887794752338763,0.23183592490634108,0.5354915818731563,0.6286574914757344,0.48397133538155,0.5857795762941898,0.2579653778719493,0.44574895724636354,0.7209534145285481,0.563651335857541,0.3519543812264909,0.10663693163554155,0.5825218158404706,0.5435602101263273,0.40395624189420065,0.4615940908699807,0.23324419981702382,0.6168561222517619,0.8509152552046251,0.834692582187774,0.5515495354864024,0.6578382381627774,0.6017040741211499,0.8176403779392709,0.8017923027147482,0.5122767926080316,0.6702457790458363,0.8092253958031463,0.8304610515708424,0.5394873654337022,0.7226423071108883,0.6692554739282146,0.7920103858226337,0.7497365859929568,0.4950870848286817,0.6622117192580452,0.5650114946483518,0.8210447557316867,0.8135505386986939,0.5785569724073101,0.6896171198176662,0.7323577011800468,0.8425496521778371,0.5422142509845873,0.6896351632656117,0.8515124680628254,0.8529372161879056,1.0,HB
1.0,0.9635144236043542,0.8455294310182655,0.9987010274180106,0.8715624947016982,0.917947287211637,0.8775106821610201,0.8385510165178705,0.9737177625952325,0.8072589955318668,0.891928038284771,0.8405774277633817,0.797264704174014,0.8807964352373268,0.6804409661187165,0.8264073014446947,0.7631070582031425,0.6769615558963409,0.8923946736338619,0.822011721115298,0.9028516911475775,0.8347464364559825,0.831645834406288,0.9289480456390913,0.6427066586681511,0.9197611300196389,0.8809849915102328,0.7105512269487528,0.8733185047419298,0.7102380263362207,0.8769328940281675,0.8609671460816837,0.7960219054768349,0.7518151627419916,0.8364661428037512,0.737504060962356,0.7982550962466188,0.6985084778873167,0.6654519645399604,0.8435331908875061,0.732195305353442,0.8435238272160341,0.7691344731608392,0.8000680033199767,0.783730348011864,0.7834937801538007,0.8113717052931633,0.7231845199201645,0.8787743707812075,0.7638225578937736,0.7997681465847148,0.8850763298785593,0.8046217096621806,0.9119141671228936,0.9303965505716798,0.7736037212332096,0.9507719791896307,0.8641072759689967,0.8023468010082992,0.9403035757410243,0.6909413583328421,0.8610199249454467,0.8186495081809277,0.687759121800898,0.8846180151552545,0.6926079247713401,0.8556473183183058,0.7974441459074266,0.6656500251632851,0.8217005240904318,0.7509050008589342,0.9001090203736553,0.9687007499462927,0.8626541285964073,0.9961529597608871,0.8116892145584069,0.9446071195088273,0.8578122263821268,0.753651537566431,0.9057063007299062,0.6662204052347129,0.816418788964119,0.7354953687474821,0.6529192578332261,0.8883291018182606,0.6697453145525079,0.8822265316709514,0.8431611356701949,0.6772572829564427,0.8132398676665971,0.7796899549318144,0.7294888127813657,0.8210520246156503,0.7374342721822358,0.6576480859209388,0.8110785204222775,0.24881963062451629,0.02053950523403225,0.5869534563307512,0.5827208107668329,0.5664547468494683,0.6559038021030101,0.5334879889296382,0.025294053329981026,0.52593031841241,0.7090221310252183,0.5344472631352573,0.6941286175735342,0.6841610655316881,0.1169654914676701,0.296124371177791,0.7386260463577918,0.5067158251888095,0.6106478064132466,0.636323034024338,0.18434231302397697,0.37649180718471786,0.770846075295704,0.6091268779765091,0.734831580378752,0.718524856157484,0.29863338147328466,0.6684715685175768,0.8131248904806014,0.764178479118224,0.8193800879648583,0.5885237077764112,0.27821004052040355,0.6865156709374127,0.5422621531966199,0.6484403307266104,0.6677320899488488,0.36712910790999986,0.2723885770248753,0.7489781862362102,0.5649541685896264,0.6825946268931604,0.7005280426214022,0.23486139989378874,0.2225267464897689,0.8103241717514309,0.6591204763291341,0.7471509642918348,0.7857101839611276,0.3565143815849785,0.34997972642423436,0.8573755885439862,0.6625806031352934,0.7292416723810806,0.6964342943885642,0.20596367957464023,0.4151973398422384,0.7621175673692879,0.5459278810291219,0.6650422169250949,0.6575854865049204,0.20764837929942725,0.45078798291674804,0.6870336293345116,0.5932048934341743,0.7072474905333452,0.5963303199509173,0.23435419339618058,0.6532224755657232,0.5241473575493032,0.5616793874254702,0.644626595754473,0.4312036800599395,0.1028998104319192,0.6638887288279092,0.6254781566628655,0.6575962724728788,0.7125782921125285,0.5620330452321713,0.0,0.4329813029295728,0.7232369194252826,0.5746122827585225,0.7545378914080718,0.7333456235002025,0.19704415868853697,0.4347222029483313,0.8049016841896006,0.6356858993785179,0.7456002216597764,0.6586573090611889,0.12643705326388144,0.4927287876715267,0.7005644401466911,0.5267332974188124,0.6734134357657853,0.6437460490570857,0.15447986339589992,0.49747290331349525,0.7505968302313453,0.6578834515389635,0.7513678167794211,0.6729490995131497,0.23899412238235396,0.6686821267971204,0.7466834031630989,0.7287871442227654,0.7543077706193069,0.5399389366180118,0.2572979636196133,0.7994836970963792,0.7478553916201971,0.807993408634248,0.8422775350189524,0.6211518399024119,0.2618124959645449,0.8133775301752331,0.6980323606895,0.5290843997719374,0.6717035590697633,0.6308034954876076,0.061693751329537694,0.32215358627571344,0.7649689947354861,0.5760754473437406,0.762535466989986,0.7656327890445551,0.3421049643084615,0.35730036999515136,0.7678994596147759,0.4421204151154319,0.5379135528474359,0.6349587786369422,0.3978626484335801,0.11255490066618279,0.6667696279992454,0.5955493888114503,0.6345307387502741,0.710526354897699,0.786561935742518,0.7234804862807285,0.7590702670293972,0.810262635437724,0.7200606228329587,0.7708158501338143,0.6610442647356893,0.6634388116301797,0.9428284379912686,0.7064036939906675,0.9239311311123175,0.8993906119378501,0.7286380626913567,0.8907371367115977,0.7171587398816954,0.7789555110827733,0.8147304173853889,0.6972847237181039,0.7848292394372529,0.9981514167220285,0.8878485685171902,HB
0.9906038418879533,0.7807239268652624,0.5538244933584964,0.3475364839788223,0.19674121443869785,0.2524203903988438,0.40318045934963687,0.6070565966073354,0.8114291659054185,0.8065366853747917,0.5967271144871236,0.41649390991571034,0.3730296156819607,0.35791245001022054,0.410353961712032,0.3636294863324132,0.39514754273577923,0.4396929156272775,0.4709014330527177,0.45525469900490334,0.36645370991758863,0.4342881407424144,0.444274791259065,0.4155163343430661,0.33712824590387724,0.25636728812812737,0.21345605098138754,0.2917869416734239,0.3784998031738972,0.4471261195432483,0.40198243522331056,0.40721619879435456,0.35466941965971854,0.26447167611358147,0.16971433496478738,0.16526712688798584,0.26632390915360016,0.3469860461200843,0.4026766828988382,0.3991270881068798,0.33099122019558147,0.36022016568710613,0.4429298516871156,0.4004297578998892,0.38399276194573906,0.25940182749678276,0.30759732541027807,0.3561654721321187,0.31057562659561,0.3427513678466154,0.4117787592891289,0.6092656607405744,0.74065415758314,0.5848007991571149,0.3760596781145936,0.2254881027318717,0.14176254320331527,0.2677801324147254,0.4648167814644182,0.6854827579017291,0.8890745089404397,0.8506084326018275,0.6372967984933744,0.421165691309237,0.22186368673565537,0.05048753204249856,0.0,0.15139938163613953,0.27466790178572864,0.30568372010503864,0.29897973810914735,0.21973627357634584,0.23497290675458615,0.328994786448337,0.3117093293626072,0.3388544182753176,0.3603833930175738,0.2856104839552255,0.34675072389124906,0.3977685642605736,0.3670865170018298,0.3011597530626151,0.1735217332923349,0.28586729492550433,0.3551855507124292,0.304874697407169,0.33218540031875055,0.3257161180882495,0.28325575999482233,0.22962922865112523,0.3275237426877944,0.3189459894756418,0.33068781948236026,0.2980751064556614,0.251834834338432,0.352200119901948,0.34255908295040416,0.35803740380454285,0.3152589917940276,0.30237973581630484,0.3745111796081153,0.35060959231156485,0.3382506013114598,0.2411626056867936,0.29943469588159477,0.3434744355964642,0.32744841427259286,0.3239878902754242,0.2864378887840052,0.35927681215140095,0.3289335120469843,0.34929985474002323,0.3710960041533683,0.32115645075104127,0.31683880777563533,0.39585154624529706,0.3611711229621899,0.3521198922401244,0.22596639348792436,0.216981913639699,0.3384322949667288,0.3165308239132443,0.3013565697341034,0.26912665031838356,0.25883950064175054,0.3368415050220235,0.30197937613864967,0.3251552771668266,0.33495120672256284,0.25738032396380495,0.2877577442035699,0.34843804941717504,0.3450478822045048,0.3652529110943331,0.33605552931883187,0.30567379223378555,0.3547839027165759,0.3308625279465637,0.3463708403685921,0.3421279518227708,0.25453309618103936,0.21173174928253935,0.3268345997623646,0.3193961796900401,0.3320253583622963,0.2664588925085244,0.23162577887563607,0.3465796176664121,0.32168479741137224,0.33525812264034915,0.345136937630829,0.26239654902952003,0.3128092217805897,0.36766760840036405,0.350063610716958,0.3376883332009878,0.21764985819836768,0.30896855138966606,0.3869357265040493,0.3395832950030704,0.36515486239733463,0.40497441733199646,0.41133506303524836,0.3327509450067039,0.3943163227023383,0.38981176279320273,0.4132522713695437,0.34168264931013537,0.35096012640015595,0.38429944780971503,0.35226852752121296,0.3835713260129364,0.3740074661830247,0.3112455480600975,0.3741486442720704,0.35177458685515794,0.3741260524407063,0.3311071171719684,0.30435243213086216,0.3758372160755623,0.38152274995500246,0.3687135282546249,0.3887980672324852,0.3746903319938535,0.363093548813782,0.39989622028267124,0.38457447624957797,0.3860260152128858,0.3532233886166989,0.33141901272326135,0.3751120141505908,0.359465105663342,0.3428789887426593,0.3763162844251401,0.3017109359075991,0.3216800002846283,0.3400279082807761,0.3650657156471009,0.37209531792398776,0.30216868755079374,0.38130811624838146,0.3984365997248015,0.43403459669265887,0.3909584538145733,0.390247857512507,0.4069201232954722,0.3766595163434211,0.37347260971045815,0.3938970397004923,0.3506548859948284,0.379627390925666,0.3604420978838089,0.38792836437287603,0.3129107398593419,0.34249736800289876,0.3803191306753231,0.4010727347064782,0.39227502563053807,0.3531052518768092,0.3954142124668679,0.3766398802130124,0.401736144860918,0.34709662409511854,0.3482656630477251,0.3683811269334216,0.3560756863525659,0.36832723332417994,0.2972436734751154,0.3421796868818394,0.361248957792618,0.3642090049472415,0.3543841835770696,0.40267469884443274,0.3225335136157884,0.30831367097191464,0.39927960902017756,0.4217272070567688,0.4151015560748963,0.35116387048315867,0.39977236426545937,0.37670999022407703,0.35032721218660245,0.36367968048671595,0.296672129036079,0.30117328594567816,0.34280828490303594,0.3356216106750599,0.28028795759540936,0.1319511639313662,0.045937122132682195,0.179609264627146,0.36921590268745164,0.5820674973010433,0.8032490560312855,1.0,HB
0.9771038434057019,0.9396059253849355,0.9074746629270202,0.9088968549538502,0.9547707135159592,0.701451660658983,0.7774180044609184,0.9628215259012328,0.9057393717159753,0.9377289150123459,0.8962433504925676,0.9999999999999999,0.8494354679516186,0.5938729344796873,0.8583668107122117,0.9440848392396467,0.9105281313433972,0.8848028281393124,0.9740677471903377,0.9921774542712313,0.6880726796258273,0.7460106557027223,0.9728983435351296,0.8909494921734177,0.9312789343677884,0.8905635649865703,0.95934714416809,0.7719757711971217,0.46172765345832245,0.7063962466139554,0.9449876956186493,0.9111010520361938,0.9323616094045347,0.8895881751153735,0.9789554910372348,0.8117928239500657,0.5461278928305556,0.8160493067191851,0.9503863319687645,0.9628796234003848,0.9380910750783914,0.9544004285108386,0.9943865123195222,0.7575596355726409,0.8613382750500135,0.9688564617405363,0.9362752541788085,0.9180430694148755,0.9329831039615369,0.9246939941299076,0.6448449701384843,0.72955510434455,0.9363789346218084,0.9029779582681853,0.9484748558679655,0.9264514968352043,0.9980035292933592,0.8106778148005268,0.522308755594597,0.779156888612447,0.9432015593875384,0.9173962573830742,0.9295684567181445,0.8986817998090703,0.9504204483855218,0.7074864921721976,0.5925382121717232,0.911208375106839,0.9197517440986659,0.9392123109610647,0.9009704510260982,0.9339318884088298,0.8952814909760428,0.5471619135676499,0.5456608500320833,0.8737869816741725,0.8871294664389368,0.9428146055394359,0.9231601080092936,0.9979014169716588,0.8842093399716896,0.5704296057605741,0.7598337986193234,0.9670171532402868,0.9206969825672228,0.9285712200415347,0.8980667936333028,0.9689590090686792,0.7790735924389917,0.6078288877704071,0.8973098696461003,0.9122637360410314,0.9351572355698557,0.8853484247785132,0.8634660939337134,0.6845133605409129,0.7302299179267308,0.8655859957769981,0.8140934314916785,0.793817827993241,0.42286164862386644,0.0467348769487308,0.2391457192438231,0.6897362759679934,0.8801476281063395,0.8156954173297307,0.8620829303126892,0.8343572671661089,0.7961280500942028,0.4018311574888035,0.023149886258069574,0.2130226606932123,0.6716637747304398,0.9191147656726065,0.8651018757961938,0.875420704029319,0.8148844767861224,0.8086320110848019,0.5348992189064069,0.1345311997532841,0.2483452238317888,0.6855813221756991,0.8641644032245887,0.8125438298507107,0.869064705676804,0.8344375252421784,0.7666674475134739,0.35677575269390005,0.023372540404514197,0.2811226637711127,0.7207187051910172,0.8674210620317192,0.8195777903868916,0.871674009155656,0.8396731973292578,0.813062289527103,0.4215497285937827,0.05674878881253698,0.2665714365695362,0.7153687217673433,0.9067162731956474,0.842120246217786,0.8840641862127837,0.8185660985681312,0.7922259508006949,0.4451720703929042,0.016227151170208787,0.08097579639391028,0.5344881802858553,0.8607775958942109,0.8366181169068142,0.848018905216878,0.858360431480501,0.8664257012226869,0.6872422352721702,0.24608568216145,0.15905019140106258,0.5757830028753553,0.8939783823036095,0.8535649029276388,0.8824609582093997,0.8779628322721788,0.8704839596484416,0.643257481836076,0.20749046467579801,0.18928451089186005,0.6194426383031076,0.8888379683563853,0.8196575359553314,0.8435234971373714,0.8330231008137009,0.8235893567005875,0.5879437681875715,0.1375907107059272,0.061750289317101914,0.4845132574107548,0.8464696620273752,0.8485065679748344,0.8341515645131833,0.8364808155596472,0.8206596034061405,0.6892618422193427,0.2398443606811026,0.0,0.349019157521098,0.7964770286808464,0.9574879163219313,0.8240973673698074,0.8332515009291853,0.8193437865983447,0.8470604591893222,0.5271677726097476,0.1523558626080792,0.33350489290971075,0.7630460471902117,0.8877050484229455,0.8164376534461858,0.8757261860562101,0.8212718134443912,0.8012232846669124,0.4276363957260597,0.08835777579316195,0.3320198147489257,0.7626118946429085,0.8777847178610224,0.8086158726818481,0.8719076988599109,0.8445984888698873,0.8256283631347393,0.4440910923494735,0.055415502289839824,0.22402913846806616,0.677940693060039,0.9000821702425071,0.8146520097482121,0.8318282981808173,0.8138430543950607,0.8176193261579384,0.5899446841997827,0.13883505919928985,0.04078597531385664,0.4588664563827701,0.8324645747502762,0.8511076656606053,0.8439040459290491,0.854367335211962,0.8573724397665451,0.7129131094488353,0.27406577141361466,0.14197914516719312,0.5415604972162463,0.8749107385047749,0.8427545625851242,0.8392281924225123,0.9245180036008606,0.912155547739787,0.9155614023286544,0.968373769928348,0.7575351247926722,0.8764587530926425,0.9505405575957563,0.9321230030453848,0.9113454961930935,0.9480399752174872,0.9450962537217159,0.6223323240387942,0.47393967627575384,0.8249510251096958,0.8980682714972082,0.8992779405285455,0.8918543851849489,0.9123992259970696,0.9756965169437865,0.766060120250997,0.8621764769766397,HB
0.887573334677505,0.7912378256194224,0.7911558431646162,0.7175514895164445,0.6899371180297922,0.7499223860487922,0.7549255143715343,0.4394826016260991,0.5939143605959809,0.5074980508810842,0.6187842013719282,0.7451174797690503,0.8535883203114816,0.8462454729915128,0.6768908990349569,0.8172572105111389,0.6896726566532596,0.7448781924984957,0.7206853938725439,0.8440121408547689,0.6654401120369062,0.617501268149935,0.6743151353462147,0.6632063823189536,0.6864109422754017,0.8133162544203936,0.90692373933899,0.6491344102747663,0.7635618750075932,0.6587657830941542,0.702268930049776,0.7332593871282738,0.8564251426009601,0.7118024011841371,0.6915562248146752,0.7232157476405114,0.6651157869050124,0.6676583128808788,0.7858113068648414,0.7587897578362663,0.6430797237982508,0.7549874910964518,0.6889781349866664,0.7141498164204099,0.7390432986588875,0.8215286861023747,0.5554270229488343,0.6171627951149485,0.47342471429022037,0.5879403218998216,0.8306411303375136,0.9338631935712853,0.9612170814417675,0.7325070330468124,0.8891660203378429,0.7722944664764815,0.7995080122127369,0.7851362309857914,0.9073079305671232,0.7978356488446319,0.7364165077509908,0.7208228872193634,0.7404972166932375,0.7861025845052385,0.8991430123185018,1.0,0.7520793803814598,0.865486659223663,0.732068310650781,0.7091061427892726,0.6828819038280312,0.8238198461589827,0.7315957100786803,0.5595271319619974,0.7061332766870883,0.6094396634562953,0.6422799419625749,0.6555416488476853,0.7923794654366847,0.5643281710350259,0.6129608437423668,0.6405199833464423,0.6141016008564368,0.6233844941873943,0.7225050845081453,0.8159987387377878,0.6310086251681954,0.7435512715087058,0.6128006433600519,0.7000548061942604,0.7260623946126419,0.8916261475095171,0.807704523500123,0.6905153101662029,0.8078422411670068,0.7500150567664581,0.8189995692430903,0.878078246731461,0.992861953081114,0.7223073304508989,0.7885751806361121,0.8006106831613886,0.7449268601189978,0.7352267666182644,0.8032162728987644,0.8038913325169403,0.6098323246504482,0.7671641974176286,0.7135105325432294,0.8049808344814413,0.8399325256074408,0.9566500379169689,0.7324752701549126,0.660038689397429,0.6905226910103286,0.6791942118215317,0.6758887586296836,0.692755601864568,0.652198570372831,0.5133351398265118,0.575791069420994,0.5130057709432161,0.5232418116993087,0.16400922449183764,0.3627150178891352,0.769854498013693,0.7079778713644411,0.6654110631253682,0.5871796482578748,0.6084563413147057,0.4560249219203607,0.17852497568512415,0.5788359976565713,0.6473060088312725,0.5959675114557208,0.6095008892753002,0.656912840165917,0.6183595141100349,0.26328343059021986,0.5947914422564899,0.8087893493469145,0.6914284413905243,0.6632004562357503,0.5821643326176593,0.6723678770055614,0.2945720294315417,0.22388826701281728,0.6935819233610201,0.6813864741925144,0.5686745004141529,0.511797953986505,0.5354638022162095,0.4891498317263645,0.06614755312171416,0.33727380403225826,0.612302718657824,0.5023820141928801,0.502904860426125,0.44097984289252246,0.5340805926281567,0.24010011139442922,0.0,0.47452916232574394,0.5773051900695734,0.4799969140082365,0.5062958080245847,0.47681824431814235,0.5220871038002239,0.1296291591318819,0.3449912943636835,0.6651622883554218,0.551702298041064,0.5596767659103885,0.5630183112106271,0.7243792081356242,0.4421928180964607,0.23954974714315203,0.7030037153817208,0.7517412000341599,0.6447135932341297,0.5909209291085831,0.576380189225632,0.5324885624311824,0.13205894673109375,0.44322796243602847,0.719042831439801,0.6404920625050008,0.6663470637930891,0.6196730416625624,0.7257829043816044,0.3525579875486531,0.39671690801284276,0.8192294711136086,0.7810349881890133,0.6812183682205921,0.43403119770897014,0.3582367302652254,0.45428491078503175,0.061810120118144685,0.19818142096919678,0.6123148847269202,0.5766041308842782,0.581520938834184,0.5277011352102448,0.6084876167394393,0.3387213548552679,0.16444660831470914,0.6051962862867653,0.6177199291854136,0.5316708353658992,0.5095903397697947,0.5744565191474371,0.466896799682361,0.12320039497778534,0.5074326573173433,0.664546494680955,0.5712222360956982,0.5433627218498853,0.5569354610451493,0.5324247929038455,0.12484705190030976,0.374835176463411,0.6937747232170008,0.5749575731105052,0.5602045326647369,0.481382212013973,0.5618002511246338,0.2518485499182037,0.18492261225658924,0.6414422462092326,0.6351062496299367,0.5970967039003408,0.5537410836307948,0.6359453411900544,0.4687523765262016,0.2415502484871479,0.6745447266414861,0.7094576828041528,0.6002734906688252,0.4734458392647585,0.3796161846604815,0.415185851905314,0.028301484143142375,0.25007319460216726,0.6231484076678111,0.5567428183612453,0.5822612864974026,0.5929771373117001,0.6960983109310441,0.3184315038073211,0.24405599207176554,0.7138240828288525,0.7619426241947878,0.8021217550729478,0.9784211717959312,HB
0.918329997564973,0.4745024313047761,0.3127840750532189,0.24296270470372783,0.46163194305480504,0.8979112568052381,0.811746038883445,0.39662811593176617,0.28265113044073875,0.20960039204361514,0.44403888723492857,0.8901020789481942,0.8621936974608864,0.4478751601717903,0.2820536446370757,0.24164623904709615,0.5535891388161154,0.9412452073759245,0.691179482479163,0.3384685473655846,0.27588793022944236,0.27009628229582616,0.6137489878326745,0.9594634958172936,0.6485559149811444,0.3473696662394241,0.30944951906973417,0.31186284751564264,0.6604702390770689,0.9639978895368091,0.6163100705530371,0.3310848716301449,0.27417012454279355,0.2902060060386519,0.6611828711219605,0.9691392594736266,0.631833537086602,0.3557299480782259,0.28412062711039887,0.30604754496797415,0.6898849475308677,0.9753270711129551,0.6148401313801888,0.34833836752246117,0.26276227602961544,0.4035358628564425,0.8373122887483477,0.8612734858661149,0.42325741704115805,0.30881334873301247,0.2448815308888621,0.3668606736252955,0.7923455820419674,0.862730238066036,0.44815973673286646,0.2911408340279177,0.2299309314699386,0.47885929576083086,0.9186275349931952,0.8224260475258611,0.40958143352805054,0.3302298826808634,0.27037295627021296,0.4848803421482364,0.9142561860363956,0.8119789565709898,0.4265747707885994,0.3003410547437808,0.2970471021451202,0.6579393590225489,0.9407271857673398,0.5726606534223382,0.30396483966610033,0.2329508839027843,0.25894066254879144,0.6505889386123425,0.8759074373037803,0.48432316935191366,0.2378053818871143,0.16529834358611506,0.11444488162901845,0.0,0.4041551554672229,0.6463346043239462,0.3073606634026421,0.1638799633140371,0.20926179753736485,0.0663781664651808,0.3572772319287032,0.7133754728956294,0.4419906774198583,0.21580601597687088,0.26818843971647366,0.14437768001437434,0.23176294652162,0.6923956034940557,0.6012381196948022,0.26731578488819197,0.2560299825177734,0.203889593305843,0.1496325478408741,0.6085723948458945,0.7162022205801666,0.3276804365670658,0.1847349476108584,0.22380707328462734,0.05286887811313579,0.3327323687951407,0.6875096362394748,0.41545075349421934,0.19453264736431386,0.24307324343841863,0.10918128420596573,0.22205530299229637,0.6860179088404121,0.5832480298427716,0.24507215699525375,0.24428335949335922,0.21523991061546555,0.0893158832069314,0.4878107975472068,0.7455031144845397,0.4009040185258197,0.20830861213338425,0.259532931425429,0.11104933053478672,0.2752091448724129,0.737401095274745,0.6066151252353458,0.25115697241941504,0.22464511186535308,0.19799948833829817,0.06477283125748468,0.48603778066051717,0.7728516219257637,0.44358720881274705,0.22839686855713204,0.2675254233171813,0.11304203865567963,0.2213188894853142,0.6935465907644316,0.6088617776550895,0.250590207310982,0.2197846955863958,0.19092528925822394,0.07561090689296157,0.5016906944143256,0.6944544045477818,0.3329509171590772,0.19067946281908565,0.2372227599299359,0.08730335693638158,0.34139384898185643,0.7530065249565898,0.5167974978822514,0.18891604225516334,0.21177911569625052,0.1792461395500341,0.10588469002469048,0.5552218465044516,0.7062582233140946,0.3337006278464132,0.19922051273553876,0.24296970155143627,0.08454419734764507,0.373788337698024,0.7461040151828069,0.4785302560840863,0.20931528015132583,0.23886289322155874,0.13419528224619315,0.23524113176642147,0.6800751995747396,0.5496217015056446,0.22396008888084817,0.22712936267541095,0.17065892661652315,0.14916417972126894,0.6148186913191866,0.66833553714691,0.28886127049928045,0.19764058908714044,0.22562566126247507,0.0914696395115705,0.4570479082514194,0.7980080557602232,0.49686164205272787,0.2260629134290687,0.26101048486365985,0.14390636499836007,0.2681009766446807,0.726727582084197,0.6014726213063377,0.2380992656636325,0.21668197618257767,0.20999879960930268,0.1429735292156472,0.5871998543727586,0.7165512395239388,0.3379625899458254,0.20268086233210392,0.24340860970524658,0.09220669610371979,0.41371180741807145,0.7952527307821204,0.5209056651429318,0.21897834086826296,0.2325408380584617,0.13785891498039737,0.18243663480622918,0.6597950237268491,0.6478362548609449,0.4239474588722021,0.7643683792185181,0.9149474432221978,0.49766418005456936,0.31054054667297115,0.25432471600960904,0.47288245859225353,0.906961616380227,0.8221039925833047,0.41845661131426914,0.2950879503528563,0.2677278999180652,0.5895371413041437,0.9794329048676931,0.7351618170133003,0.3720998699602547,0.27965475949367025,0.2497747510041869,0.5835552860205651,0.9897192962205741,0.7668645754012129,0.38817883710171763,0.3018126358694426,0.2880832568855588,0.6290451661992518,1.0,0.7184881992976477,0.364513012765034,0.2563944601015171,0.3014215373799619,0.7045486280487467,0.9620878857791653,0.5762502129137319,0.3255448023706935,0.2434024013017605,0.3606260554073053,0.7915751024393214,0.9126737198527033,0.49369628335881943,0.3138040757100926,0.253599511595468,0.4597791871514747,0.9065217221583228,HB
0.8928983849569208,0.7840511486224515,0.7406990413743397,0.7680683734375768,0.5319107375403309,0.6870870955684865,0.8961367289652613,0.5867101567211139,0.6936840809427984,0.6258731698387732,0.637723295136555,0.44829794155007363,0.7330822782885837,0.8498283193733425,0.6018446060536635,0.7340763151662157,0.7249686804069779,0.6751761923948711,0.6347402311664783,0.9754009548099907,0.8768325012936211,0.8539754852758041,0.8104109418117709,0.7854570120912134,0.5890554290733454,0.8358432184544755,0.9668300638337253,0.7124398061376978,0.7301604611573747,0.73178443623129,0.6290017696357943,0.5890522557744551,0.8803984545144403,0.7265445119458431,0.6982581412252666,0.6372180011654471,0.7240492090738777,0.5287451701955752,0.6028771303037939,0.8870449913568845,0.6845809772646074,0.7319617073517946,0.6933377842025066,0.7200847675133146,0.5070702264129077,0.304342674249118,0.19545939362553044,0.39358942817975695,0.6311676881660109,0.5622539916813611,0.43293848029850146,0.11741236086363305,0.5764924236157398,0.6225384094936781,0.33953045081652133,0.5490961463571584,0.5115467460247496,0.5317024695633314,0.15473031685680372,0.35374770592297766,0.6799155200008289,0.4198225979641039,0.5537960256675869,0.6020527214864897,0.6099453597030071,0.3266634291283603,0.5033293530051508,0.7403889882913983,0.45760163260226827,0.6239769516132512,0.6839953909635645,0.7096901132240596,0.3423772820952329,0.5598878892888934,0.7985895238874878,0.4713280777343263,0.5895431541960021,0.5996329918853025,0.572802694205981,0.177110927533211,0.22157213780368767,0.6797482070799687,0.4648779537165555,0.36899550433294426,0.5468757253719922,0.5327641744945559,0.3868843972604923,0.11115179673174902,0.5986654382191285,0.635212334548048,0.380624026066573,0.6270021085038593,0.6338813317091585,0.5969617605910744,0.2378314332594349,0.6104047753474613,0.7974521859924826,0.5007924830500343,0.6650287100626606,0.6520137576774196,0.6332057919023351,0.25003967315402953,0.2811421767309148,0.7234444677353107,0.4722420867774124,0.34213225751879817,0.5675475884472831,0.4621395681272462,0.42393635763768245,0.0,0.3680411042523115,0.6396053313041246,0.38565367689065333,0.6215616975111264,0.7367750269383224,0.7315390393672261,0.3474367336511408,0.27634115868138753,0.7332625861100239,0.5517588166175678,0.47243047125995297,0.6544645250875472,0.6440897018343223,0.4226234483932094,0.21501287742694153,0.7016929416410482,0.6014963880790098,0.45073188909621553,0.6667430942725256,0.5661317387992337,0.5465207061713633,0.07271111690760446,0.328159806249964,0.6191923728570319,0.31881879496333054,0.46722485901126865,0.6219471469181306,0.6365235985103253,0.4342383522970805,0.24045472063471784,0.7038005170016559,0.5651297716479333,0.4717987283416596,0.6691795321390779,0.6512771535312831,0.46776585187962727,0.2084828977759754,0.6739839075737639,0.6507955591107928,0.44376624916434704,0.6381824078579146,0.6088582060691663,0.5864332792708926,0.19140328898969772,0.5710379678162205,0.7135632717611777,0.40210786693846723,0.5746103082713065,0.5366933317048916,0.5491059247151,0.13435867723583694,0.1846349726016423,0.6442506339809704,0.42315623984879824,0.4351988795248234,0.6450767403516604,0.6584290101731449,0.482569351151513,0.18339403115311814,0.6628801856143967,0.7018528612580068,0.4231059579573331,0.628482130235323,0.629545502897825,0.6062935868102333,0.23700878392020108,0.5968837695050353,0.7293874196618608,0.4463167580774643,0.6514352946639721,0.6118610844717018,0.6687999766243093,0.9740711994840834,0.8010664791074471,0.8141359335669365,0.7359611283448442,0.753426297967752,0.5497592204410373,0.8004453133322609,0.9577709348934258,0.7606109440531839,0.7851586590806714,0.7429545050180981,0.5427116566392662,0.5648730195741867,0.840598193058395,0.6774147473462881,0.6845434877689662,0.6811825680902786,0.6519690365927873,0.5625580148220366,0.9069170025364053,0.8439747231368133,0.7813676827250364,0.7513989215145389,0.7657593543721002,0.5705383163314304,0.7255955744799265,0.9568282613943442,0.7605741561837336,0.807233567795508,0.7746819185322704,0.6751199470367535,0.5933082068395703,0.9250555036444923,0.8577163200910176,0.7667813384434266,0.7067166712791302,0.7430355747109627,0.5040682864150576,0.5229543044583642,0.8302926948127771,0.6374183457499485,0.7063550005128167,0.6987220209985283,0.7694395299897128,0.5498574937875826,0.7649760232076477,0.9552260981536294,0.7632935618707131,0.7692934903840802,0.7571919918312036,0.6004839687841659,0.6617528970748396,0.9161077982304477,0.709224225108489,0.8232351781011586,0.8327772458452762,0.7786496692531437,0.5261462367866176,0.7689678346893527,0.7947095139624025,0.5969573612720365,0.6010619474722589,0.6389589081702383,0.5646225170833401,0.5067458307421284,0.8549291140096416,0.7809836929771921,0.6910706221063667,0.7495192211647201,0.800351237110716,0.7237436064610887,0.6785412297313105,1.0,HB
0.8545297874447351,0.4898031862545711,0.5598517045124436,0.5407161775959686,0.7393012461978361,0.8914885241401738,0.6128454068724016,0.42578077133937997,0.48217007808959633,0.5764600717967674,0.8368564916869325,0.8372120687121196,0.47215411948463815,0.47287641280373416,0.5127195201295396,0.7423728015710105,0.8840123939205249,0.5190356416542228,0.353115452953078,0.463696546068864,0.5314450807767424,0.8014712393986994,0.900035895597227,0.5181577156275965,0.4725312483929096,0.5083462341284024,0.6549783235257225,0.9161622286679005,0.850453564229241,0.5039902356773651,0.5239757247509387,0.5618268954261889,0.7802103171730672,0.9000110293779828,0.5436636866158082,0.43928759433283604,0.4908175180699552,0.6150192699939585,0.8785920369604159,0.8328369442260817,0.44920509155184907,0.4981454170317645,0.5295962183476466,0.7642326399564201,0.9410284089021719,0.6678333523735311,0.4521339361664303,0.506497902157931,0.554888731211433,0.8143913458952081,0.8900458387605994,0.514137133561388,0.4623929336809971,0.5007278935842174,0.7055493204178,0.92912296989208,0.7913567524768139,0.46080600043543196,0.49952143972537666,0.5478071538506075,0.7675431785600861,0.8799254801470422,0.5262274322218381,0.39198876973717134,0.4561590314631332,0.5606273133774944,0.8278353139840231,0.8483027924066175,0.47179165162339043,0.5034007685013098,0.5040576232837262,0.679368873657342,0.885732829474394,0.715626510533558,0.36501770061900074,0.4721741948196425,0.5209622794101358,0.7527930307592527,0.9253413296359358,0.6890425888825318,0.48788005449676075,0.5708854350654704,0.6453467541019697,0.8655331473842995,0.8690234797166556,0.49662535358211746,0.43269183885126994,0.4573606507042445,0.6138816654272026,0.8741316545187185,0.804949788990984,0.4416783004181992,0.5085056116213169,0.5115464176969735,0.7240888914581345,0.8969423855012502,0.6155461846155839,0.38979763223241215,0.4883657620483841,0.5557051310565135,0.8134119605507144,0.9103250312972975,0.5428698666635468,0.47601691244961586,0.47544797407538764,0.3130727501159998,0.3061832221776204,0.38479127723609374,0.05294452542100503,0.26358987275974144,0.7401775784313565,0.7102628078896804,0.4714507352888615,0.4103962596644397,0.19954216476725017,0.06867156015847975,0.5700823535053956,0.7803047971943808,0.5453593863290442,0.42375765707928337,0.3827443719894901,0.054025799815161646,0.316465461912937,0.766618526463819,0.6954875430269722,0.43981725751764267,0.3721974328013844,0.21338720685743873,0.07649634403017758,0.5519401604750456,0.8064577017972869,0.6423320095944804,0.5087324598808238,0.4401226161644576,0.09639905528995496,0.3153229006010736,0.7620189527563663,0.6924339566470452,0.45616904900767574,0.39535862703824143,0.12030305304922484,0.11506135998189215,0.6323676040366382,0.7493373607644049,0.5037703221545402,0.43137941829203763,0.2863007461117941,0.047703538309542326,0.49333545860746164,0.7707464620507885,0.5477035468553473,0.38968961097004473,0.3065763256107277,0.008862624929656393,0.355955414510448,0.7589201818651556,0.650473873217553,0.45618779899935435,0.4117961874209215,0.19749729716433007,0.2132042393722957,0.715414914409279,0.7924155872263317,0.5280589118558399,0.40822238708954184,0.22914738755030428,0.0,0.45470816090765664,0.7815280459870033,0.5933962449802666,0.4303531492300612,0.4068913157687064,0.09016387847511376,0.2757348263837873,0.7643780289899837,0.7587573586750314,0.49715774313090777,0.4256851117831706,0.2513668214881146,0.06259150165285621,0.5403863560261937,0.8104651277788333,0.5993964763095476,0.4260482227479061,0.3616364016072944,0.047677088882383645,0.3277369893301685,0.7621066560771625,0.6799758131661242,0.4830473875939614,0.44875411403559573,0.20439657187782956,0.23641973265514538,0.7304439866076011,0.7598291794671876,0.4983037170956872,0.4308727284695699,0.22337652356876014,0.0831670292388631,0.5769431997150687,0.7838910058687083,0.5436276331794503,0.39598207084879333,0.32721823800847827,0.014065389926329885,0.3140954989116347,0.7387284182166267,0.6184806082825898,0.42739368788904253,0.38046484444525297,0.06887680879623459,0.18373531964340084,0.6928287142962102,0.7232941591368884,0.471368822301913,0.40886368918450233,0.2043589951482867,0.08482239855380791,0.5270390325880323,0.7870986636151447,0.5965467505013904,0.4641302399062701,0.4463934851672826,0.16381836272826944,0.47909077503871766,0.8845485700568458,0.7393495914025552,0.4793567611697813,0.4243035584564425,0.12452059681871686,0.2132029356470011,0.7238689538890304,0.7551590384877707,0.49400357756054336,0.42936229787451796,0.24362659143254461,0.027411114528134606,0.491203644678454,0.7739638636618702,0.5718868220582405,0.46330109940656516,0.5496179047665641,0.790816718045789,0.9011897820739465,0.5369229973039016,0.37133137979203856,0.5014940544076301,0.576797545840164,0.842788202998987,0.9286063618112657,0.5460002438249749,0.4827757767803691,0.5275942881639704,0.7440668372524839,1.0,HB
0.9179177557345244,0.6581823667860056,0.3774821845035,0.45842849717125667,0.6852702368696273,0.7403924055036024,0.7927266373320181,0.7808991156275891,0.5073839003697957,0.505415525491455,0.7301642655930696,0.7442298256853896,0.8228420706692328,0.7461692221388487,0.4746938595305352,0.5401548931802589,0.7383190570570448,0.7957183042832554,0.8351743987536244,0.8328618910793921,0.5532345339824609,0.4706689180585568,0.719826089201657,0.7292157762957183,0.7807554442337901,0.7788718526740979,0.5379915580097894,0.5621141884975802,0.7902393294583381,0.8407927219223457,0.7714661382001002,0.7676079520931509,0.5847633864390145,0.6870635507102412,0.850144673555673,0.7770158739875319,0.5104442002736584,0.5108737249098243,0.5564084911398133,0.3368050495479592,0.4273948317672629,0.620333681854583,0.6725694555355195,0.795978876496888,0.6826064270259455,0.4676186502509039,0.6669466675632807,0.7932719805173634,0.8096036809863156,0.821480840544244,0.5680595457334239,0.5198167328068866,0.7448702414715627,0.7649275088320984,0.8213122308890204,0.7413965328808692,0.5073409410854945,0.6597521436754539,0.7794081595279256,0.7842294713637816,0.8390834246947871,0.6617257734505511,0.4367995368002002,0.6144987021382753,0.6677739872446236,0.7218886426121989,0.8994977230578673,0.8134261924989188,0.5834492949261592,0.7236314054852235,0.6955622145386742,0.7173926622812608,0.7553186354589501,0.7458938582258308,0.7820189756632332,0.6375411203180179,0.38961882270887704,0.5435917468411657,0.6781106634412082,0.6888801266974016,0.7826176411869596,0.744249378371862,0.515077547553719,0.6428267447885008,0.75764661955362,0.7047669491912854,0.47605467208256025,0.19446927525912394,0.3857689320622597,0.6970959530686953,0.7178217909420856,0.6369691792494367,0.6205955483656165,0.423852477893629,0.15220197417731773,0.35137684941989134,0.6663743368827397,0.7155635474899118,0.7025286712181644,0.6978323216988294,0.644852611026647,0.6137055788790671,0.4045907637707349,0.34263754504769517,0.6823474698187135,0.852443737774256,0.6940655854826461,0.6080874670831224,0.5526331544192646,0.2782261394600303,0.35762941651056157,0.6890444549594275,0.7468565586117255,0.7116475192691254,0.7037603226998741,0.4534529167675443,0.19696239045992914,0.4331580203565035,0.7390096747140626,0.7444143147265043,0.7148207716161705,0.6255937799511635,0.3065343652394533,0.30192961647772865,0.643865500697574,0.7938560116879638,0.73890739638044,0.7143090570206543,0.4486234474345303,0.21795513056646165,0.4697872136363963,0.7238566537600102,0.6430700198050112,0.5896947599895492,0.46120213714189484,0.13998633628654555,0.0990064204698956,0.42003974544297273,0.4927595935580267,0.34961629473177436,0.5339048564313758,0.7638639068965125,0.7166406480418472,0.40848341065494287,0.225608865268784,0.5160645842737952,0.7220168979311723,0.7260718949501526,0.7934737374083813,0.7121379425096481,0.42601200325392363,0.22235110363614574,0.47581525705930217,0.7335937727307069,0.690120475590615,0.69075817228445,0.602105544702753,0.2758433714334191,0.2633926135164265,0.6185295440476182,0.8131985378495601,0.7394144425997358,0.7224143348998249,0.6142843202717887,0.31325218210375905,0.29412003224444183,0.6257428637084361,0.7592007494255768,0.691106033944495,0.6950179550746607,0.4676885344461319,0.22634275041790974,0.46771587441472207,0.7431137835293651,0.7320141382821885,0.6887434800707954,0.5985341432442259,0.2900589413333523,0.027214724506645305,0.26079285915703665,0.5979095239384598,0.8353055701585084,0.8481553828853925,0.735627355391528,0.736905331069057,0.6023984504739226,0.270658234397948,0.3188932053203515,0.652351869695371,0.7003461845023029,0.5857057916706785,0.5446141774876376,0.4412621657425475,0.12705906623962226,0.0,0.30619938346182685,0.49829302684706134,0.5161497105647685,0.763333987733148,0.9457399311029713,0.7660014558810346,0.42210111130626626,0.48737197977599944,0.8339453065935294,0.9135108905597353,0.7790208788149984,0.726111518447085,0.5982860096478202,0.2839241486841776,0.2150145099633175,0.54996484290488,0.7498744334538383,0.6475896367676763,0.6401033236444407,0.5416994377205524,0.23351702382181794,0.27112811875067633,0.6011248351212097,0.7043442301927372,0.6497552196054226,0.67837982507542,0.7053049736262065,0.7165922493380479,0.7574659521840037,0.5840068008813319,0.475211188786383,0.6630659471180247,0.6877650007358389,0.726183046207532,0.792468834657833,0.5645747003319093,0.47694471536561256,0.7118343140905392,0.7886930251640394,0.8505334510753084,0.9911011398328224,0.8672311356739539,0.653372674004957,0.8688936814752761,1.0,0.8142140099270465,0.5914365632655945,0.5423884856878098,0.3349335969694014,0.3907903885861084,0.5628382211596537,0.6094402921514979,0.6696887676839631,0.7837786000417275,0.6373348438825241,0.48769185006683924,0.7169023002490744,0.7775357728219887,0.7925253317127463,0.9522061308727843,HB
0.9088932650713458,0.45272567971736166,0.14383288308803377,0.14190779843582813,0.5594526713719331,0.9281000378313983,0.6638877050406841,0.2509140663664674,0.07783497348978752,0.34367389485853195,0.8298788879506122,0.9238685111611143,0.4856787829615815,0.13652751414094488,0.09091247362124388,0.4805124640878514,0.8733368918247816,0.6665325942722159,0.253379358917755,0.06482279054439022,0.2981972617327576,0.7827714984518822,0.9634721054193237,0.5555460191946869,0.179703197207556,0.06347858195544231,0.40332714223223454,0.8794513512483627,0.8734958414605843,0.41755031560824774,0.10752794836009494,0.12971036706326722,0.5629966389654403,0.9763039222525017,0.7772569176675753,0.32894784436779345,0.0655733007264081,0.17789725147478952,0.6534646422684894,0.9921546102058024,0.6831643823834995,0.2505468945753778,0.0516056420166906,0.28799337564856875,0.7589625735965865,0.9626078447441239,0.5709975702900981,0.18579299784380865,0.03199936009667148,0.33740415635226706,0.8304698808663379,0.9156346636012275,0.48194440997610555,0.15569098501700396,0.13870878424345678,0.5389611053483315,0.8488175385932352,0.5322965600212451,0.17126893825033984,0.0540117854163199,0.3893639723182195,0.8743316780984726,0.8964325860839509,0.4454316541871238,0.12305965844670896,0.12060274947763383,0.5406024472062742,0.9051126381478479,0.6370880553374166,0.22903886511830052,0.04288081062220661,0.28549209190812774,0.7766349373930336,0.9545948478814145,0.545198813415818,0.17796175392905966,0.061069275616881025,0.37403446143782093,0.8371216951739991,0.8022017285433561,0.3568493053494227,0.06850962344695832,0.19194901480281645,0.6515917158503853,1.0,0.7122967525156753,0.2732727669764986,0.07547207744335505,0.30939851218247594,0.7944287912386426,0.9137761170422195,0.4798680352276675,0.1316426948853019,0.06880761558771775,0.4220148428323577,0.9020788946162744,0.9219786399729343,0.47338096685734665,0.1459393370348323,0.10766260950186868,0.5026815570904312,0.9354638830522991,0.7731525231076947,0.31619160961936144,0.07090506438980404,0.19100296323860066,0.6444402522806237,0.9593006753007166,0.6464571734690606,0.2360524185921825,0.19630168313844443,0.6036876276997692,0.7820043405123828,0.372692690999353,0.028917061485467577,0.09840569376097208,0.4152487355675446,0.8052277859967102,0.5919695802285815,0.14638339297266945,0.05203526025826244,0.3083044494192363,0.7451047786838662,0.7826986187130992,0.3185071614471696,0.013736191477520698,0.12148094532692655,0.4950601834020162,0.8588974509714388,0.591908840196098,0.14485520305680466,0.05865170207533066,0.30279533706727946,0.7386546883311421,0.7956157996452834,0.33969543196696395,0.022021525848632373,0.1500239112069145,0.554744834256424,0.8090700970934398,0.43542645057097473,0.054384594693906774,0.09561012873274943,0.41560750021297566,0.8255663741470746,0.6642633641236276,0.19940880149923068,0.0,0.20757415371058396,0.6109030288658729,0.7727158879147419,0.3551943568989321,0.030068250251803597,0.13901472152719607,0.5063358299713466,0.8804247897567413,0.6251052798689024,0.15800260439018177,0.013570477386959268,0.23873451002864388,0.6334767078050688,0.6613485061179812,0.23019247524281583,0.05818875826772707,0.24699606354194736,0.662205684528196,0.8000876196784291,0.3616226478182941,0.0023150365507705883,0.09265481096818518,0.4267919267141119,0.824437701035028,0.6365056640241494,0.17141863071797592,0.020035894622253303,0.25196435569836206,0.6786980735159086,0.7785407217752655,0.3329061377726835,0.0065572285630176586,0.11733126148667639,0.46020997232747785,0.848734598071086,0.636633426468033,0.18235022092680842,0.02231943510264034,0.24484253494831643,0.6720969510180613,0.8066510372537373,0.36438800465450727,0.02346709225886845,0.12790362464995741,0.47089237798470773,0.8738001689487317,0.7066478985641728,0.2355237514907823,0.024787204173921107,0.20461945911596646,0.589892994977883,0.7803259859147945,0.37636403419668796,0.030673420889003933,0.1148367514274754,0.46378942414050306,0.8389441895334976,0.6013484734199527,0.15574516104447123,0.052965773164670105,0.3000237981991246,0.7135838300732563,0.6989988604958334,0.24637287611937297,0.04541019609423502,0.24657154615798904,0.667260437027564,0.8731569014204251,0.47185296834143486,0.07776594192685449,0.06572909500942925,0.27717656856034123,0.7216572093436459,0.8026477613375941,0.3552876871386631,0.023234119128346498,0.11658581487712116,0.4688043066187112,0.8739350965289884,0.6764775957625763,0.1963651633589395,0.002900933182554133,0.22187727088430864,0.6541068988002564,0.7692529177248385,0.33639213572255666,0.02795608370160807,0.21942705080734193,0.6998275283971577,0.9463363266600032,0.5741781725602341,0.16974717001965467,0.04193649577302172,0.35705119439175925,0.8546198869456484,0.971745841878228,0.5357819773199081,0.1646098408355433,0.06089531465252129,0.3904851877533476,0.8717127877684091,0.8960460139966276,0.43872691399773645,0.14064262115650616,0.08284730217462788,0.4287207401406051,0.9105041592323252,HB
0.8544254986152724,0.4700681336231649,0.6098646565377588,0.6304842457893101,0.7325324245157472,0.8937325363892261,0.7686761991848756,0.33578055429766573,0.44998187549584046,0.5651083130880072,0.6528163904638644,0.8944691364132764,0.8830840693698196,0.4982537919936372,0.5690146857724074,0.5980408804417865,0.6926521683152644,0.923333113688759,0.8749756072033719,0.47984869493635873,0.5707549725386203,0.5763738966458576,0.6514378310180813,0.8932148604512433,0.8989114335423969,0.5556651368621894,0.6041639521911841,0.6244003189139617,0.7587859954632357,0.9588989919183624,0.8223410895188967,0.43499497352473737,0.5699118991252949,0.5982160342280791,0.7149766448775068,0.8924493676623333,0.6903063412361037,0.36998995879531327,0.536563312730183,0.5879432327485046,0.36531404508637255,0.484491401187612,0.4616840651766443,0.17048913763930718,0.017440222231046132,0.5180305886674459,0.766775516794455,0.5976719162279673,0.5029855980891427,0.45866174667798054,0.11023666260141218,0.30610886748323596,0.7824218173323196,0.7796714325298455,0.562401319487845,0.5073362104400923,0.39753532003628256,0.071938084748699,0.4038855289950807,0.8027267015169628,0.6941129711839988,0.5099057005162149,0.4919384354232825,0.27749104046942663,0.11445236900180666,0.6007156408424525,0.8052983236151523,0.6028183592670142,0.5095937078426926,0.44274721531278316,0.08797603173171775,0.27551784325616846,0.752755463179066,0.7284461217100018,0.5173835733046361,0.4529242448653352,0.248854588867075,0.0,0.4481739681401449,0.7716431894746634,0.680974919148055,0.5477856680662307,0.5303084650680241,0.2674148710109494,0.20400545635828582,0.6986171144487934,0.847135429770119,0.6113466865240327,0.5084586465575376,0.42125426520027,0.06204883073595857,0.2582682272669141,0.7404532569049043,0.7092951320259038,0.5423548323511782,0.49790429330607533,0.36753627232108355,0.0784941516429134,0.48098759195939444,0.8036682476666119,0.6351312858960674,0.5005079230367309,0.44410966293278453,0.0900071535231739,0.24784413135154537,0.7399287444253335,0.7522756138811848,0.5441743798205867,0.49213454142492363,0.4112997976455939,0.08021857851379055,0.3950829185765199,0.8019090831608018,0.6944289325373971,0.527382936274363,0.5053663004534319,0.3040379250853087,0.12035298028674535,0.6002608364051314,0.8284482476446808,0.638608400806671,0.5147260364717414,0.47082779772813055,0.20955429041826812,0.22851332817791747,0.7287051756727891,0.8040056085977609,0.5800753855902798,0.505234137466227,0.4565746940375217,0.0987042347334397,0.3302714209508566,0.7765719159992026,0.717241763493188,0.517477781085063,0.4564437740497911,0.2413197381940193,0.007489087578691045,0.47416618417765344,0.8007054400814917,0.6576301649060865,0.5256917450163523,0.4968090965229808,0.18821981246479869,0.09900824475989634,0.612790947249469,0.7949883083232405,0.5846583554427223,0.49755768832970415,0.43740670476825394,0.08850311712917502,0.24452975167064284,0.7366055194392989,0.77092627569215,0.5416781526238177,0.4710168434721498,0.3555303321825205,0.04273917364297386,0.4107656234527983,0.8019182468764015,0.6769469409740934,0.5197296542954213,0.48710863814287886,0.22335584565074318,0.14910498518759407,0.6584589504475218,0.7991819250420351,0.5861277125917101,0.5033782949791445,0.4461213718982091,0.10328823219215288,0.31906812782022653,0.7873136209831715,0.7553648431961075,0.5698296997553249,0.7804224410782357,0.9655746467212956,0.7755391975090087,0.46888455541773455,0.590494008760976,0.619109118612559,0.7764950588572586,0.9383563885434263,0.6747712938261488,0.40572930576401767,0.5888837009721073,0.6192936326442469,0.7595083151143658,0.9454238651720377,0.7225788608916164,0.47085647254879204,0.5676129395363008,0.599818049752834,0.7923129923986674,0.9606313117245102,0.7195085694371468,0.47471251254653835,0.5678285034783295,0.5967240247678154,0.7569479750071608,0.9517591584803557,0.7416870290801889,0.41146289194674956,0.5853939625593376,0.6007246582170263,0.7011699692682642,0.913827765079471,0.8353491090601437,0.46219126498703655,0.534953981149439,0.5730152551180747,0.6815433508611926,0.9262497317544442,0.8874887134370428,0.49437161640166005,0.5899312254504581,0.6035211806595244,0.685394882720123,0.9134243832098623,0.8455227851610154,0.5248271716496926,0.579405337080279,0.6119495429722768,0.7611436726594729,0.9523860220303406,0.7522742874953192,0.4919473281293416,0.6065622588676094,0.6191877601157503,0.792646030443146,0.94565969733327,0.686221452546899,0.41949915391556525,0.5812849931468467,0.5994546829389538,0.7256032875190683,0.9356811935226761,0.7561826286233384,0.42719968701214905,0.5771257267575356,0.5994202713507344,0.7351003180599955,0.9340739531457036,0.7846944142856171,0.4854548605383935,0.5991072105920707,0.6128498308524346,0.7139845332350114,0.9288997404914918,0.8379073110327291,0.5121208675746609,0.5832244556775903,0.6125295638592394,0.7713923607566555,1.0000000000000002,HB
1.0,0.5767716748384446,0.48683954430226084,0.4610158088457914,0.30621682595111466,0.5225536404371169,0.9499986688712712,0.7074936307866713,0.40783633696445776,0.4388398232748911,0.3501369350803536,0.19563526953234778,0.4595563237102058,0.9130016659353584,0.6768493344168345,0.38712710913392057,0.41230274031105596,0.3870086277500455,0.2648815024813831,0.5707623869238079,0.97107862772789,0.6273772305683845,0.3496377202769687,0.4609123244123108,0.42887667342270586,0.29022682361774255,0.6061278783628312,0.9587432075728302,0.5775416586102202,0.41237392179352783,0.45016451519803447,0.4150879014593287,0.25581742011897735,0.5319895619161374,0.8377568012666745,0.46241289140459507,0.35120397995841435,0.42352518828991315,0.37147995805622847,0.34831149405995365,0.7661414215452864,0.9990147983183797,0.5210529600310072,0.36464347837705,0.3700759077596527,0.2924371725756938,0.3397765351365436,0.7821946293917246,0.8586451937835391,0.416492587120298,0.4365410519024677,0.40613355450781086,0.25448312169288734,0.33298331121897906,0.7887087512767468,0.7852468402549113,0.32366778189584133,0.3953529422927562,0.4258479388283307,0.35242866973571463,0.33816893543586257,0.7579267230506987,0.8410782560829948,0.4194672800105197,0.4150034604438204,0.41735261063821527,0.29787159203910596,0.44730239167912167,0.9227738301251978,0.8843901078336533,0.4280369620280178,0.476404277138752,0.574578780219932,0.4033795355721823,0.202425028408717,0.570057942692173,0.8727723735864035,0.4752029288139692,0.42922290794496076,0.481609626664111,0.39661154217627503,0.3893071426431205,0.7952888559243854,0.8541199693825354,0.4190440239377691,0.41980137852842425,0.3913718323075144,0.27343138023762803,0.3396748663635414,0.7806710779223671,0.7509267289980954,0.3563377482036145,0.40370338594938593,0.4309666467231419,0.3502089565758708,0.3623582666326084,0.7788495679952301,0.7449995197506634,0.3745509050242437,0.414496089704536,0.3800245495354617,0.2050873306474008,0.38759456846348606,0.7507582733251272,0.41958610107125205,0.0,0.04415533612049982,0.22458377237995375,0.315974492581232,0.18509766038260267,0.26015747806620126,0.6856028148315008,0.4145380618585075,0.17639964116858753,0.31358804511660976,0.3008703677831974,0.14105720268538313,0.16542201283467728,0.6966366624350382,0.5752653270097641,0.18408655371180105,0.20104407452222173,0.2955940703710156,0.28537184355075684,0.08086441057767413,0.49535891030783086,0.769355149738058,0.3898221631862353,0.23928565163696192,0.37868842731154473,0.3340176138077582,0.0751988685833278,0.3701935891359174,0.7375770350232376,0.35371429044409064,0.06967179175872218,0.33045568839630146,0.4608308650043256,0.34233943519315657,0.09362775882103147,0.47982882145613015,0.8334266650919373,0.45227810892455445,0.17138765198279904,0.28950421424714134,0.2981718329658105,0.19297008582025788,0.32793552863887765,0.7118683898636542,0.39208842799064003,0.16689880296663206,0.3109143383401123,0.305279055202778,0.1272133635804833,0.19668343927206777,0.6705759180288795,0.44101305134723257,0.129915664712982,0.2595053079449601,0.32795557268505604,0.20370600511901094,0.17033521146520947,0.7026772947243267,0.6283583205877501,0.22039806947752272,0.19440230315970286,0.28037434679540674,0.20817602541250135,0.15675778185679556,0.7035915259585583,0.7766498529740518,0.33170311193214586,0.203270486172745,0.31113211865686763,0.27102718266904313,0.11402823184268929,0.5237879936160863,0.5659502002010148,0.19920364199875884,0.22432966970270263,0.33658011736361226,0.303442737122845,0.14454833180593685,0.6077000787143594,0.7067418931079432,0.29033752993477213,0.2059453286977897,0.36972159974066754,0.3343261390992409,0.08677385252652581,0.3999903386702024,0.7642647372634754,0.4017284067140454,0.1647864784716404,0.30464840808213456,0.30835093671239333,0.09903033294217556,0.23189967682061807,0.7266508371599341,0.4813810883225753,0.11743005638351045,0.19198570782889357,0.32170451992757876,0.262622651493166,0.1457111964691955,0.6652699515735243,0.7082566292884982,0.29572420829491053,0.21717026478439738,0.375202900336828,0.3700532972539379,0.27828738384307883,0.7087415085869546,0.8690390065581846,0.4261075202010973,0.21415426296288054,0.34219812190881616,0.32361174672404625,0.1442096804427817,0.36149990367533835,0.7486623310028286,0.40303458183868335,0.11793253595998454,0.273269259207519,0.3193720184806268,0.14155394945608402,0.20321899648889552,0.7111234055973137,0.5111966078348704,0.14540536167076246,0.22914649570689427,0.3323602298382706,0.26646832030005196,0.1963376884923913,0.6262686981065975,0.4720120952458897,0.44757586060610777,0.41553614513338566,0.25927082448026084,0.3111402468571862,0.7788754484643721,0.8441271788987121,0.38379701465992166,0.4050993729883392,0.4193019623124412,0.25817673097370264,0.3446649795663044,0.8159755562877375,0.8864719755832478,0.41560705143597465,0.42792643269477626,0.4444139724963314,0.3409396062599077,0.45384679571607256,0.9174480251414945,HB
1.0,0.9530777481825671,0.8115523917682618,0.5478488198933718,0.38171908756334894,0.24625808829085072,0.1980602657274836,0.26892038108757554,0.34796406281171854,0.44041712508541553,0.43414887862924034,0.4042822939376165,0.4455893483019545,0.5259072451595627,0.5568927195149277,0.48476042021914745,0.46304494041704936,0.48921673551463996,0.5782123001508988,0.5416790127314635,0.48762147724768323,0.4658576600115756,0.532751327319431,0.6559951485916128,0.6169837788108776,0.6060667483774779,0.661211845081087,0.7993575748643537,0.7297657906372806,0.7049690284784741,0.6879249279718299,0.7378476889558673,0.7614976921355753,0.69616045763156,0.6355933936721753,0.6364788822686295,0.708769609115966,0.6102866008188631,0.5798601482273024,0.6149631684899889,0.7322868230346616,0.6747599454540357,0.6369912859379186,0.6144257817271611,0.6495955741368497,0.7244710881949797,0.6033668752249471,0.6102752745599679,0.6395221762350941,0.7369581927525329,0.6596923241689524,0.6049935718405037,0.5914294802246315,0.6426336194241281,0.6543151461684374,0.5902569099629627,0.6031109016395361,0.6517211738459457,0.7455524061623316,0.6465877841500808,0.6676191302300397,0.6408421287041913,0.6843380837092107,0.6797595796046748,0.6208415258592374,0.5961260558594752,0.6307997885758592,0.6655794804121177,0.5409984050095643,0.5772744517063856,0.5882596177780282,0.6755857205519699,0.600770627118109,0.5737653955908981,0.5356246953015195,0.610366347877213,0.7477525976775939,0.6072227745817936,0.5704868883377749,0.5935959776581734,0.6407339373752984,0.7508182265015545,0.6411467296600876,0.610290511902909,0.5897296674167203,0.6579688095132653,0.650367710630641,0.5352398329487206,0.535378891834889,0.5485507900574927,0.6463870621325843,0.6055758299519863,0.4950370621158585,0.5889465520145313,0.6235908879435784,0.7079838306886866,0.740652810656904,0.6446192740269358,0.6628943409700746,0.6607994411898742,0.7253514615194309,0.6961646736743877,0.6212954411906279,0.5767378089833242,0.6327981431609556,0.653424630841205,0.5765512127189235,0.5270616221704741,0.45723936659730224,0.4119322723744815,0.4558686993859258,0.4769563572422485,0.29898352880246815,0.4204476823664386,0.5876016556751664,0.5013129148808756,0.5208469868493529,0.45482715544621377,0.3793815646581019,0.6160638989993725,0.6051004407734615,0.5807237561247972,0.5913002008258206,0.3535139972237402,0.3377375259270682,0.6365433145221394,0.6501985655753105,0.5656426688415905,0.5175029304557571,0.42768605095226064,0.25019048087012785,0.47955677283224774,0.5502028909973022,0.4699536412357307,0.44540970020232973,0.449926380996451,0.2734372242992045,0.46568862649750586,0.5785023845461025,0.5245396592786015,0.5267726076618937,0.38671289976316026,0.3414815591299517,0.5877362872230028,0.5721500216330286,0.5261918805250495,0.4833338920742277,0.27822238263504795,0.4485796426879084,0.6040532557332273,0.5103464429070296,0.4577403035286953,0.47260330863513844,0.29319872702248084,0.43654631917010656,0.5713980509924236,0.5185966643724848,0.5157211312247911,0.39038860656826146,0.28402718713845265,0.5379291981923198,0.5693121508512181,0.5343925741225249,0.5229355801736841,0.3240573501025056,0.46111852078803495,0.6401149063127088,0.5844471657457568,0.5793473248816462,0.543241669055983,0.3291671076933139,0.49019173873991273,0.661964779063949,0.5778078898799094,0.5265027974521204,0.36834732900053935,0.26807493938455673,0.5380584371705133,0.5822779259327542,0.5237379054392586,0.4893426086048599,0.2857317634086074,0.3894891576373696,0.6240270049036835,0.5829798328420854,0.5422935111006882,0.46189308691900854,0.34897760635057695,0.5808885298078118,0.587207255358494,0.5507279503780023,0.5440251886918158,0.31755651345826863,0.3765852178566066,0.6363624115040721,0.5842145403178614,0.5212730123312604,0.5002578963753951,0.2829626363764386,0.3417313946571495,0.5822932359969251,0.5526480551508137,0.5708540674792081,0.5947884352396261,0.3953916133374922,0.5166849470460377,0.6706058171326582,0.6230005356960766,0.6260421509300296,0.4738167457451956,0.49260511872416146,0.6813828262993858,0.5927988606510364,0.5312755323819208,0.44235256248085497,0.3789586997548374,0.5529759848433583,0.46517306529853697,0.390143962452027,0.3927574848710984,0.4709181297400179,0.4634735200989626,0.4039375006985795,0.3981829584489226,0.43925883852620073,0.44465805974819395,0.38217821381464034,0.32819671984479426,0.3110658640675613,0.336644352273607,0.2615092500927463,0.14682298043701136,0.032128850194753256,0.0,0.24994940572807456,0.3715069182535865,0.6218402675357979,0.8251020876319978,0.7168427083873076,0.6898126763998532,0.8854748063489221,0.7528579140633845,0.6754322407005856,0.694959695104694,0.5020822777081899,0.5061300333610536,0.715151191423962,0.5959216543265682,0.5930257451207913,0.742633420473709,0.8019430591326225,0.7978034706071203,0.7722579658771406,0.787344513218427,0.9707670065202884,HB
0.9351995752884856,0.5342842282187275,0.31861200990389493,0.17030544899044342,0.28268069992399836,0.3101939742109421,0.45477418967474303,0.8306422181922808,0.8951019274990122,0.48795199790921817,0.3665779650440948,0.3036992981058493,0.4204831916548635,0.4442471574030975,0.5396892190245159,0.8607122225487358,0.8284111322111829,0.4621937736141901,0.28680499970157225,0.14658567914435094,0.2906183718271471,0.3352488581591273,0.49939121649384033,0.8903240919410105,0.8831574307403685,0.4939033423931396,0.304807563105411,0.29859337293309185,0.3301802928745743,0.27504860158361,0.40630841052109723,0.7865827438419037,0.7280838975550772,0.36906354889564197,0.22030997467863145,0.2633692594030803,0.3312334748421879,0.2539081663937903,0.12406743255952968,0.14241959880869404,0.1491823799228209,0.2775428618488167,0.28895451269594696,0.17015179317526563,0.2225394592593828,0.1889249331193681,0.16458153827654654,0.2963435313494922,0.39121269482854837,0.48700649051055755,0.28776437224592,0.20521894170305366,0.1267378820407119,0.03283130029826431,0.25311498748792705,0.2394184353237847,0.3815861680225363,0.35866321109276766,0.31975817943139795,0.21402706970784413,0.20694992632751408,0.2548188207247084,0.30176610816770655,0.36913854369192434,0.2234829292756908,0.18808028756204198,0.08360681638981404,0.13857518540371716,0.2934738943688635,0.37169465045654926,0.493670589412738,0.34242533484186577,0.29310234393831713,0.2230677903820566,0.17156474408294953,0.27328026332021516,0.32249185557615956,0.5261817906805093,0.3306695984929977,0.2401178525720855,0.23085105962879382,0.11428608012745878,0.2272776813351962,0.16749537709121176,0.41928364840228793,0.3641693321470587,0.24877017902239018,0.2518539544175664,0.1348707270607985,0.21933677933434703,0.19629771379209782,0.34640135053578813,0.35472175108216186,0.2394202535068497,0.224676711116381,0.13301096582133765,0.2382417409893005,0.2178924445364543,0.3511929893638479,0.3463249370651149,0.23842614120622763,0.24708564659132426,0.14637122155858018,0.25620152763203397,0.27868950841595197,0.512544877731826,0.40970388474642405,0.1970007137982459,0.10539023137875025,0.0041470865815504965,0.0,0.10158508240997621,0.21661151162244074,0.3736538045796949,0.5230575687608958,0.45445821966495714,0.2834585375520242,0.188842419976591,0.25534009896962395,0.1582989098638703,0.35230269019701854,0.23121689658961175,0.22560299461656053,0.26950396757668704,0.15771134183124413,0.2471740178494639,0.21190161307978572,0.4199438415652299,0.29494704008095507,0.21976381050016336,0.24131581917006173,0.12603045510201483,0.2062081840444554,0.20170283971930836,0.4114386846505198,0.3758875354832183,0.23161043790180447,0.22101395181808003,0.12716504485988267,0.13475691293691838,0.19599427303931138,0.29020934368690066,0.34802232995527094,0.20103558504448493,0.4112637450495593,0.5002932145224728,0.2698953500872481,0.24422695705437203,0.3170849760582466,0.3974909850407946,0.3863668269903191,0.1448973601260506,0.05756812801542743,0.278279431401502,0.24042223202206303,0.2522260084175092,0.13133384609056398,0.25445567346330256,0.366911474913755,0.7290452453139169,0.6115089974124164,0.3587660118081417,0.3444983553079233,0.40076838806581705,0.29221684976719153,0.15825653314426358,0.37238137205035926,0.7171620777412229,1.0,0.6450622492429479,0.4638868090825854,0.32008036300037457,0.46874149413427446,0.637189062856125,0.4333439814770874,0.35438170706638683,0.6982993335117493,0.8501705518370111,0.46382670148501903,0.2951679088083039,0.22223534634637465,0.32531356388553734,0.3348123684224582,0.5160162737674221,0.897043834529327,0.7241724288069307,0.4123912429847256,0.26608189398979043,0.288361164877049,0.3366038530284916,0.33465998021352483,0.510743765221672,0.8980612698117727,0.7165128502183524,0.4043328909317312,0.2940731583874516,0.3512925212874336,0.3737067917811685,0.3122370617044581,0.4814954483479408,0.854675172893832,0.6087479273224505,0.4090899689695324,0.3243570389263173,0.3741185576961841,0.5427486539273234,0.6507409547664893,0.5266803783092642,0.7249570759045301,0.7127081630887466,0.3163650603794621,0.1538871446877348,0.1032250083583417,0.20517108414370266,0.3067578981333594,0.5272638327540982,0.9227310658840757,0.8482312059020121,0.4776437316945601,0.29561656438450923,0.32271443875016326,0.3487530126254854,0.40017833637986033,0.6954717107768031,0.9449490472776576,0.5683892566905251,0.3933775768085841,0.24615222171822904,0.32397277223273235,0.33961497087766324,0.4257293419543302,0.7649830864797504,0.8795826643327693,0.4951934222373544,0.29846749337356915,0.28975214201630317,0.36003027052999537,0.38052696829206756,0.5981273238803841,0.8911397118137603,0.5666095947301484,0.3398952059524687,0.2339281311925534,0.34266481813998473,0.346839395502764,0.46202759634575763,0.8223335796668687,0.8726767670194349,0.4983525879448183,0.32314846978157874,0.3016833603103648,0.39496564298290915,0.4125235454484062,0.5747131843871469,0.954559253591388,HB
0.9265022778821224,0.7361604913989139,0.8423296087572187,0.7308456603743179,0.7398298194358071,0.8240391990148139,0.9047941940127076,0.7292300991478586,0.7864875066025316,0.7074916480660152,0.7485290031321692,0.8600938278963435,0.920891777870446,0.7488905125153944,0.8158150789708292,0.719625923732353,0.7438677193221781,0.8470501406569393,0.933480474057661,0.7248072014834186,0.7999114082420773,0.7255567414839388,0.7197762165688562,0.7673354384283555,0.8570145809824501,0.673655852763483,0.7070042461825152,0.8289549733410975,0.7395952411696363,0.7804656209715488,0.8777259189702753,0.9596162130890509,0.7025934921622623,0.8396339287990391,0.7799483115519106,0.7522884479439744,0.8049828229949223,0.9552950038657775,0.8755590014556724,0.7413759614456863,0.7585803914821581,0.7038139274986452,0.7561159929998986,0.6486530230237899,0.27253078241374373,0.26943327982227894,0.41528478868528174,0.49464875060125957,0.3870035424331726,0.20964437922388113,0.570975012731473,0.5445739061831958,0.46362577723331455,0.4902105833726438,0.574605169842171,0.35317524329665684,0.5061775439746832,0.5864145885184606,0.5061352852982783,0.47229622256767056,0.5467588482747825,0.37633155118867023,0.0684290526215614,0.4554993849509663,0.5309919353499128,0.44487762933077546,0.4380315314503149,0.4948075039557409,0.40837241068819985,0.20056547477300635,0.5973789402833369,0.5835925855533306,0.4762184503112148,0.4439610331396966,0.5025475464706752,0.4842834720914637,0.11975094858595714,0.39901916349374567,0.5683873183335901,0.48511172844291073,0.45122513417891064,0.5218372372050966,0.2352330700780323,0.18263428673298598,0.5428568494393886,0.5092620981011216,0.4518768667716433,0.4846159072582936,0.5495899206139518,0.26219751460262364,0.5170863976725242,0.6179994579907109,0.5073000053531058,0.4603433681709821,0.490758933792788,0.5205171797396311,0.18347818794440185,0.4296173149009004,0.554381414536465,0.4632965405908438,0.41621177478628857,0.4924781991641143,0.3749221141459609,0.27628614607980095,0.5588423023388338,0.4973164673796582,0.4533687929828023,0.4566454593294522,0.5718376742053946,0.3677223027007339,0.5331565885706251,0.5779170535165372,0.49596890829578166,0.4754917331652435,0.564396848048498,0.3773677318156752,0.15145126686346844,0.5342535162787145,0.5403853645289578,0.43347998205754124,0.4358950723764905,0.5348938937663426,0.32958661392313626,0.497596945174799,0.5856480765266885,0.5077059379221756,0.5158022601169336,0.5659844741187348,0.4355646736255827,0.2835847574040353,0.6190437551332719,0.5270304764322482,0.46793123052632435,0.452325022582722,0.4984090148338911,0.3950886822154551,0.0,0.3341314931493917,0.5635297770793435,0.49816602582643954,0.45785402042498413,0.5250537723712823,0.47755092076719485,0.20701568537424997,0.5769152978223522,0.6208598037803457,0.5108446280748198,0.5005095131911288,0.5453625701292895,0.48490200211207757,0.20634999056531056,0.52641498098729,0.5600231376764921,0.4742518819609014,0.4466904523945643,0.5547918185749467,0.30374009391788226,0.12495722425388323,0.4979157594046182,0.5034057057401116,0.44973501361530266,0.47902967229176907,0.5214427552560155,0.2523800864389609,0.5722913333456194,0.6777724453890399,0.5165782676197632,0.46353274360224717,0.48516356195211685,0.5609809118724738,0.1837851343482284,0.15384681385708943,0.5526778878519809,0.5427774506701222,0.5708972746003007,0.7411227809997758,0.8585195444603753,0.8687749325489773,0.6768804916914357,0.8322830074022485,0.7375659653477009,0.726410044111462,0.7943791998362077,0.9399253219971269,0.8594535210924152,0.6910011539829433,0.8242385364736826,0.7315161998820656,0.7261407046161463,0.8100112920762337,0.8783362274616646,0.6195694529945408,0.7703114869170009,0.7685572477886051,0.7380463833916062,0.8112795189928215,0.947659198661492,0.8432404518141925,0.8047735899547601,0.8042964686551528,0.7703823445787181,0.8135856548339464,0.9332945868055669,0.8179970737921725,0.7430463690900906,0.775426569242216,0.7099708525550978,0.769273055627254,0.8438499594707838,0.6538081931572663,0.6835740918206303,0.7340717529119276,0.7166260527153221,0.767885883118244,0.8542704899658959,0.8865808861177533,0.692390077498378,0.8423413063118419,0.7712224064541986,0.7702346453757105,0.8384355935138883,0.9601507168826018,0.7589801807176664,0.7293286685041651,0.7515956841304101,0.6998662418370514,0.7630447995805705,0.857586371531252,0.71565348522652,0.5569575588349234,0.8293638539933319,0.7598830845923712,0.7583825772777435,0.8402575162214396,0.974622762506987,0.7470361608414549,0.7484945212974434,0.80970184233305,0.7433045089234462,0.7454470292860549,0.8697577394671874,0.9473515408999966,0.5865046305176582,0.7272765400770864,0.7327495950078702,0.7003993467681973,0.7722509842697316,0.8740495110771764,0.7298571388532493,0.5464427147331965,0.8209231007995355,0.7512672785789656,0.7515472419276459,0.839070565360561,1.0,HB
0.9999999999999998,0.9184653790563593,0.9785404005851437,0.8794045160106221,0.8098272432159852,0.6625713686846952,0.815289941667179,0.7784617791594342,0.7428414872689413,0.6588787930732452,0.6436770785494887,0.5326690358478876,0.6721099699373927,0.6307859755745604,0.695742809155133,0.6416325199521344,0.6560212812716737,0.5686630816999383,0.7048417685954231,0.6633288932165871,0.6955037778680613,0.54536910329018,0.49393887531936076,0.4129902073363898,0.609606333251522,0.7292632002481787,0.7088177772698325,0.7258232999027048,0.7009536092998456,0.6828860038191007,0.6685499741031944,0.6763538863221294,0.7143953782346626,0.7485735315654714,0.6945630050342853,0.6476010306736073,0.6335072758436853,0.6917496151507401,0.7229224224976105,0.818147455653383,0.7477193598780103,0.7529513950902429,0.7162282252687742,0.8116124484012135,0.7419392845457453,0.763651519124527,0.5950931111968074,0.4905615681835229,0.3338637852277342,0.4765147310214388,0.5291191586783848,0.665729442219577,0.5555183296530144,0.4687908142505983,0.4892239196476169,0.5803328208565122,0.7433114603664175,0.6278881080061047,0.6562997147223386,0.5937920682345599,0.6077054785266607,0.508336426346155,0.6635713545606954,0.6449620351730088,0.7593501736259916,0.6657990884585983,0.6000918447443089,0.4927133548690479,0.590263963800169,0.5825462736574905,0.6936749017389554,0.5840777516452857,0.5618415691164556,0.46777136956672605,0.5529660493467103,0.607920081655801,0.6786527694287556,0.6852555405163538,0.7613415632792451,0.7071531319139639,0.7784612787928669,0.8883837689503402,0.9110666561309422,0.9074025566651163,0.900618582281475,0.7869224011744504,0.7757408468032609,0.7491601353175754,0.7637119514120003,0.7446982137578917,0.6363296366833506,0.6036991924043527,0.5685300942077678,0.7733654604645397,0.7261453999726648,0.7669699861054553,0.6906076897166076,0.6611697065607831,0.6244357035510137,0.6996456051492819,0.6486159041555373,0.6974449262958402,0.4183771132244627,0.18976663776421332,0.47735329131192183,0.5656736460432858,0.6635549159238219,0.6933443088075093,0.6496379543099347,0.6847580734733716,0.37335076796996236,0.5078428588262436,0.8196602071286805,0.8226128273584419,0.8676268061570973,0.8012761087692997,0.7912698355388097,0.4487583649360254,0.3231789591309604,0.6525745157827532,0.6605987955760015,0.6302144411552522,0.562563635352274,0.5472699326708566,0.3485071775457693,0.01453385789353967,0.2648419468958456,0.4931966096169802,0.47340673034888603,0.6198923037990103,0.5366750018299171,0.5248357944307349,0.332973516527304,0.07575333040122145,0.35921370842206124,0.5445448159526285,0.6155277733138382,0.6775152841643701,0.5532857140459231,0.5750099272996427,0.2614313424583816,0.23379078420756705,0.5289107769003623,0.5363638741615429,0.5897859535761831,0.5423048227561515,0.6485125091823025,0.3782875936062855,0.03613105599726785,0.25566159303949654,0.3959247885433832,0.4611027831006107,0.597965884916309,0.4686872717244752,0.3964303091318291,0.05192261201686943,0.05054425620034264,0.39353317516391373,0.509328696467829,0.683962213618263,0.6732873844486928,0.7263803034113947,0.5459881696387037,0.25303100871910367,0.5235334753402638,0.7012215156206107,0.7039988316057826,0.7429798703187511,0.5794525153490078,0.624389102010374,0.34242965375192114,0.2253209115542505,0.5633757698855304,0.6133737481648918,0.6791682630708575,0.6298269402264924,0.6051944160356344,0.5157564382530662,0.21991864397336602,0.46990797859623745,0.6529763641707815,0.6370379299783109,0.6606864378848483,0.6192105248585997,0.6096624402730286,0.2395668023771036,0.0,0.31389596414192744,0.43004205771960313,0.532863698708193,0.6297927702006809,0.5897564594801934,0.5944225133611316,0.2470630763727193,0.2342726920972782,0.5661949454840378,0.5763081186517127,0.6266652402287336,0.5633816594590899,0.6119923228755415,0.3397556582722243,0.15014533585622325,0.48222127525578107,0.5906013874435463,0.6270222514817909,0.6775670650588366,0.7341614361538598,0.6183895185809363,0.30999037428414455,0.5471524762757591,0.7895804435536558,0.8497849587603838,0.8873000548539827,0.8557615004667947,0.9291291927282714,0.5982427177845686,0.480189118176956,0.6508021720800967,0.5742845384536097,0.6990674477412562,0.6296359098043529,0.4818528784673959,0.4238152958116619,0.060270926170511885,0.1469376478735802,0.43081654600111396,0.5128309243524065,0.6231147680433364,0.5806668437795404,0.6076944784426073,0.2720283214644612,0.21739282702794593,0.5509776644487987,0.5847090670742459,0.6300675998724448,0.5739320410610824,0.6504373354619817,0.6637950628912066,0.6723988031453503,0.6658697282397597,0.6600522213245965,0.5895977024419119,0.6634611280590883,0.6617231777957768,0.6902481992744705,0.6073740612679226,0.5199598707753437,0.48058006036245593,0.5565540631921131,0.572435967301874,0.7679748371783262,0.7240241999774326,0.6607673255766067,0.7985950368241943,0.9291353020035353,HB
1.0,0.4925817699873365,0.3467743998429551,0.27977740038668575,0.3453016220686469,0.2937754843239513,0.3539510292162231,0.6075507101835198,0.9084629729189939,0.5452300335779188,0.2959686641856325,0.2353578761695001,0.1401250375691423,0.3155396434562645,0.6779085426266152,0.7010202432286974,0.33254895388423167,0.21669018617013114,0.13674513253037102,0.204180201071118,0.36881819291577544,0.7199707183291109,0.8285706343047674,0.38250672679925257,0.22875280490927485,0.1581210604679022,0.24473166468069074,0.26678596104605434,0.4263591390932757,0.7964525006249836,0.9254990917818526,0.47204777322666214,0.31348068455046585,0.29076236738866434,0.34590600515332026,0.5610704993921405,0.840707700724701,0.4783056435656867,0.2263859635174459,0.12718951452886573,0.13072147307806503,0.15804902822470046,0.33576824261445903,0.7150646762496824,0.6569090489341356,0.30656313487263454,0.24277732888725412,0.20325575840104015,0.28493345282262883,0.45378582679396295,0.8238227889496978,0.9127666465122397,0.4588164088549034,0.2833265987881419,0.17565348039855477,0.1959765219254903,0.20803743712177436,0.386492596848631,0.7480796909153113,0.918390062899161,0.4860319053785185,0.3130608753302013,0.2849732579166999,0.3248920189521911,0.5464751119935167,0.8344150763904596,0.5253815123950285,0.28712795091571985,0.1862846670629934,0.2149325640000268,0.19059999814124273,0.46751892070454604,0.7000139722494785,0.3703579172590916,0.15371365143806326,0.09313552892434007,0.09367849418346808,0.12862978503313904,0.21243049663564895,0.5046590217604985,0.7227607333510107,0.4144694886616591,0.2248814204705223,0.12850382351703216,0.11198748793441204,0.16463848076116872,0.2181096948228638,0.5515664631303432,0.33825785811856557,0.11967149395442922,0.03606683495453655,0.01776810252307781,0.11119658885491379,0.18915029884633805,0.5572997858376398,0.4675927818123715,0.2706374409960506,0.19853456533604819,0.21384697175151368,0.22745724226206487,0.593936143665704,0.5953873424663967,0.31677224285706407,0.16376125370119876,0.16032571568295673,0.0429296610163874,0.12559497576097023,0.16348457721245735,0.5314127633740706,0.5301830801587828,0.27161764971550895,0.11090480684089021,0.03665520831316549,0.12403087982139649,0.16602164973204037,0.4396241439505584,0.484085471834089,0.2047617542149487,0.0179464192854617,0.1270319116061085,0.16054976122799935,0.23171207772567515,0.6245622150051982,0.5138040176884253,0.2758303586907229,0.20332994939084648,0.255950230716238,0.16968006298791716,0.24310150995616953,0.27229634416664306,0.6941748431627119,0.7582702007715225,0.45119516799526016,0.25923598011933136,0.041694459396228734,0.021988501837057584,0.06126995038935723,0.3525476943709118,0.5506857419303417,0.25377966317986766,0.09855223153399129,0.08412510155805375,0.12456595102552592,0.2062234281705484,0.3652251843304182,0.6935122337869997,0.4491397624629756,0.25240888499553593,0.13928944832753132,0.16814904219333737,0.19357999820639638,0.5368658741179484,0.5723988383183034,0.29965562500404364,0.19551791067298208,0.17258415610499034,0.15258447327966618,0.2713088548855036,0.5192746680716018,0.8267313158262692,0.516967916230672,0.2899122833793162,0.15080289384865653,0.10633077284437054,0.18127494134161282,0.22738005389174587,0.5934048121063236,0.45034550986583044,0.22259031103831495,0.09174873850873189,0.11490663024786008,0.06746370119573086,0.35250344678968704,0.5296711523596556,0.2622634773492143,0.11938452527196652,0.10634268121894186,0.07649955432021471,0.13654061202654066,0.20937186441647704,0.5168526771060953,0.6095441775863231,0.32112598737976494,0.19837314673080808,0.1523639294072332,0.1762510981724268,0.2502534891496997,0.45222421321489126,0.6794579425428302,0.36372756372756765,0.1529896151117267,0.02865187767180588,0.0,0.12155022237897173,0.2648500348633087,0.5072812490489214,0.9326746936823502,0.7763308944411418,0.3915092665093294,0.31510689896096755,0.23871217309242798,0.2729744076068954,0.38814486902831336,0.7137028286995317,0.8679486214637935,0.4453754959849916,0.26359604478945586,0.15671247133474742,0.19523538912983662,0.18607381869417594,0.3234171736507987,0.6586267162783819,0.7487161564368359,0.3250427104436491,0.21700589839078255,0.17996576393582142,0.2627593027541453,0.4915511337466816,0.87098587070059,0.6185164574723565,0.2993678424542754,0.23137462420144805,0.23480745835210515,0.3289482948003055,0.5352431382808089,0.9534768579435795,0.9635676718801505,0.5036311805478295,0.34678510328352585,0.25203942303605054,0.25351149442021725,0.3301293787434276,0.5292995851412794,0.8811971232912823,0.5896555137920401,0.29899988100874664,0.23057772710805935,0.24160148736425846,0.40363298217827603,0.7153647939201448,0.874621018053253,0.4575508901466083,0.2931463973812849,0.18412573849944858,0.14962656246927208,0.24068417953212107,0.509965833904829,0.8137155568426078,0.44425473119161074,0.17641126508600857,0.08428616674054545,0.1792497592163227,0.3882877087670633,0.578494195547326,0.9747824428384111,HB
0.9933415524277853,0.7952365956305343,0.7332098783371999,0.7191176525964613,0.7347671926869608,0.5523093549045996,0.8256019126562881,0.8446302608430871,0.7700766511694193,0.7318292396292634,0.8204137077260283,0.6482646642949506,0.6988994193529683,0.9279929817094539,0.7967743165183552,0.8258414695742928,0.7812089215783629,0.7617138576933553,0.6139939580827398,0.866337231680379,0.857079448095766,0.7880746347642962,0.7296227900924133,0.7805335007250096,0.6793433824494663,0.7973662343087278,0.8982246987378146,0.8352853075147886,0.7635713239170343,0.8235088573726097,0.7099059933540752,0.7841248199649438,1.0,0.8648346328479675,0.7986748168310802,0.7503834470185193,0.7993373750445532,0.6050046832597116,0.8124165789252689,0.846767677477954,0.7755331639452949,0.7236752176631425,0.8169860996591076,0.7218480809489047,0.7610566118192157,0.9323436216115262,0.7520942205477068,0.7837461023981009,0.7289975998092333,0.8367329651474105,0.7762096788180934,0.7711629162672735,0.9567962877292389,0.8680967477489596,0.8475482716664478,0.789401464324452,0.8604669723036729,0.7167931033008459,0.9256743244029502,0.8926566396815336,0.6696172000676144,0.6643396873682301,0.8162907249636455,0.6859168170088628,0.33957025719051503,0.4788485784464951,0.5941450561007093,0.7402478148978142,0.991306695062645,0.8839367607543318,0.8571549015769135,0.7430652753255611,0.6542526900707271,0.8845265625670571,0.8229578972748897,0.8030147680233521,0.7452808741395902,0.854455351224003,0.6544515443061236,0.7430543340591909,0.8974317108952099,0.7996916356357784,0.7517778006865323,0.7243723970137672,0.7780645057320248,0.6699852773295494,0.9297143587655139,0.8799271593790396,0.7602944010425667,0.6992824953565204,0.7943608338668633,0.6610546448067072,0.8069526313550721,0.9311408465539057,0.8257642898619513,0.7991748186003447,0.8102670608723646,0.7712065465449385,0.6883731440303191,0.9278357475492975,0.842356293371175,0.8221797220573817,0.717741618840944,0.7941723399961744,0.6994559113956307,0.7610424633422372,0.9438044908735241,0.7935940368418417,0.6693252827054548,0.45517216811208816,0.5021228584171551,0.5313663323386864,0.48495955064698304,0.3121386217066586,0.4137432064784623,0.6422100863691305,0.7491299655175445,0.8016649733733545,0.4174048673825914,0.34070060512207645,0.6907878198699431,0.66314739303946,0.6708663542454887,0.7457997728727253,0.7953185470453059,0.6534533734023418,0.2605879684369101,0.45854788346102815,0.7347976754793235,0.698733488429504,0.7495261106115292,0.7792159943823616,0.7811803458901783,0.3750379674056481,0.37464162559564884,0.6937957804328787,0.6253027552889578,0.6631001041568476,0.753121440620967,0.8187707600783138,0.4589214972033693,0.36284433425219187,0.6795595752057273,0.6461633327809311,0.6831130749510101,0.7212411571066841,0.7952656733355683,0.5966763744088746,0.2749617722892217,0.5462029745962729,0.7766201333485196,0.6605967469027181,0.7192141045859921,0.7467824337642637,0.7357819126571985,0.3475781734387944,0.3318686667536086,0.716826078483702,0.7705095141618474,0.8549867097624122,0.8375499056114317,0.5278400255571387,0.47420897157255903,0.14722719311675414,0.0,0.4266294783249398,0.7335604611161464,0.6542518465321316,0.542921788092456,0.7237347111490542,0.8384161617403638,0.503661067852881,0.36913645298512976,0.7236688503903974,0.7333156592653189,0.7418138001466028,0.7896209486101795,0.8362362720966416,0.5502689223404875,0.2821572053920167,0.6246941935454924,0.7450986192037212,0.6462621751313113,0.7000567685549612,0.6649680425368008,0.8029938264923691,0.49327293141902717,0.2729798883767234,0.6311114369509305,0.7285013428777394,0.6464618101258786,0.7047336740113319,0.748574563645815,0.5459890732084329,0.24124680163463497,0.5504531894561431,0.7222299687570235,0.6746726159633933,0.7628371937304856,0.8404565678373377,0.7203182961244459,0.31069266647768434,0.4660288228186473,0.7535837785262394,0.6905545775456217,0.7435655744728766,0.7906619998806153,0.6752869062326909,0.2645815619639844,0.3958754804921545,0.6959182865661258,0.6516116151496452,0.7123344592036722,0.7305639212510666,0.773296420830107,0.4015743367245339,0.29095299225988835,0.6430500955396776,0.7054848388827246,0.7526365612339858,0.7147481616851887,0.7849630791060056,0.4555390557355792,0.2651394597496288,0.6317134719549713,0.7251822345221768,0.667352708699974,0.7138032806984174,0.7710977642337506,0.48275154929387565,0.23757028348077225,0.5700943074788809,0.6676121219293076,0.6239703557435747,0.7030345983705146,0.846852880089124,0.7726022608146312,0.4082094266612153,0.6320120277804735,0.8788918613880248,0.7744239788136396,0.8387641083067123,0.7947209553400825,0.7458896067839338,0.3653464328390146,0.2284664368608902,0.49964492673303207,0.5750085086991708,0.8575935168040458,0.8697050245625775,0.9142880306363588,0.8374055906542885,0.9541667095952939,0.8315819567136811,0.8844911121694161,HB
0.8415881599055939,0.40363129563084454,0.6145371814505807,0.8006451064829112,0.7510473363515442,0.8198284797029527,0.36078353669412033,0.5243592956720784,0.8062573512253213,0.8614464449933541,0.7782818621881469,0.46870129354992285,0.67778186429222,0.9037651977391068,0.7173739759697959,0.7050266902155644,0.4283837952757885,0.5237743806351389,0.6878791150291148,0.5694651369007011,0.5153760936633041,0.4422134183325608,0.42166107007600706,0.5990182768201122,0.7982404355806887,0.6615015862070743,0.586563840915943,0.47369710802090426,0.6294195487391883,0.8870014771012666,0.8200016014838156,0.7726928395192956,0.37974200066446473,0.5516741880891054,0.7929402113017594,0.8138359958302939,0.7425448728133976,0.32653329046542945,0.4877527541360407,0.7658240848714115,0.8336906288653161,0.8183048827038375,0.3885288864842211,0.6210061431232434,0.965076673730882,0.8959437730729367,0.9115617058553163,0.6324081783854925,0.5726549402747998,0.7224625190991167,0.7325999620642083,0.5429212948861437,0.5395343374928978,0.3651309783112415,0.5438045338888342,0.782816811898094,0.5711079779815367,0.5787573485900497,0.404438897089173,0.5000460587824458,0.740006427901458,0.8808110610691373,0.888937963060688,0.4386579278782574,0.5593591350724068,0.84440920858549,1.0,0.9749022144199286,0.6003773661793668,0.4991011791851774,0.7433522187046351,0.9847496659905004,0.980428660745639,0.6619788028913463,0.49810461335621303,0.7401620242861817,0.9419713151786966,0.8465806583370039,0.5613427047979114,0.49256222513424097,0.6694481673674981,0.7821416908501324,0.6428251764824715,0.5423942877175834,0.454890278822651,0.6550532893256795,0.8281232912019014,0.6628872108812054,0.6427646078647293,0.5979204662468764,0.828082630444726,0.7972495738806349,0.5197583347063035,0.2341881437267217,0.41983437986282857,0.038048509819301746,0.2930595470854547,0.562635426876311,0.3575893103650305,0.22150994991572404,0.22931178770215332,0.25157826077835077,0.009244537612324688,0.552343573891859,0.535185264275996,0.34984178610591377,0.3345939283308512,0.5144625865324519,0.5023687276025908,0.7757626849372716,0.5338402998935878,0.2541382290326699,0.517409864318545,0.5360885890116514,0.5597159301777426,0.7463363746210767,0.45607197762544605,0.23608979561369514,0.619207659670844,0.37561724244702654,0.6700298848159281,0.7792054872516476,0.4701010522205191,0.2510426576974796,0.6054532852937387,0.3086446184823668,0.5883372707718579,0.5377392180087379,0.28082884579009715,0.17598860397525984,0.30172333206277147,0.0021995967963559515,0.46053828796577,0.3763996514616208,0.17457943263115272,0.1480246379900625,0.2470042365100329,0.0,0.5386876704551682,0.5362607590540316,0.35904212462806573,0.4285857897070584,0.5842551648999557,0.6002234354741525,0.827383475176994,0.5261863262536979,0.20053596939808482,0.4986082353140957,0.2537469055129393,0.5569637728741519,0.5712072858030766,0.25074063962064397,0.1709553140066311,0.43632492975185366,0.19450935071998243,0.6128063295526145,0.4986949365316873,0.21356921231369785,0.4218518065566599,0.3261476345525063,0.4078505234088321,0.76392558792022,0.5019351024634213,0.29911846133799047,0.4177772948485514,0.23077508392510593,0.32426913634534316,0.5342420667625731,0.26555553508487506,0.11006341951359211,0.23201178548249102,0.10512402289629552,0.21997794310194374,0.49781313335636934,0.28269871937215063,0.22276470316663444,0.43393301747262125,0.3069541533484652,0.6186665351539924,0.6721993690667549,0.40220321114307733,0.33289370978890753,0.5296116837105833,0.37324735989274416,0.704752903428588,0.49210742275574626,0.16187473979593792,0.4036783847333911,0.2092671860342561,0.2785210358678958,0.6716337613267878,0.4900073120241455,0.18264936830200318,0.511955081834349,0.4692054883916521,0.5073142651996845,0.7960645070111556,0.531235163120487,0.16508679963946626,0.46460218980516865,0.5052062540122373,0.3605675162035107,0.6979678471231487,0.44894745966624994,0.25772013612192657,0.27161648892306545,0.23811744713751137,0.2562401715187299,0.5301969280896555,0.32727409294613974,0.1892489150611949,0.3710174068234422,0.1375421057466859,0.5410037274994153,0.49471874676663896,0.2867619400671737,0.36382036902021264,0.42767296046651415,0.47718159034435104,0.7041443809190029,0.41117018007749584,0.15600138234388883,0.4932075255426951,0.22362144111819982,0.5765466213523589,0.684787538117694,0.8039418377288396,0.837861432959377,0.8262214545314177,0.38440380033655464,0.539506805416551,0.8158549694192483,0.7865919013326828,0.7958757557818683,0.5125480275675125,0.47992257265760063,0.7142225776560922,0.8579402274383963,0.44476614306819773,0.6472519903246363,0.4461281137568922,0.5332078881356219,0.6793134855975311,0.8556077794364483,0.6630574182477873,0.6521892988036901,0.43709714505319663,0.6186737499253478,0.9239551096944725,0.8966239450914912,0.7060333446811158,0.4176941834556387,0.7034097533527675,0.9535594715264208,0.9745128300181074,HB
1.0,0.7077024509834513,0.6148891393337745,0.8592683943262367,0.8003342661986006,0.840843681771916,0.879742252281964,0.8441139043377177,0.8337616413230937,0.5147583194599987,0.32262650170493323,0.6266218495985727,0.7411970918863064,0.7913126788869664,0.8705590998978239,0.8801461783106788,0.5760608508549228,0.6949845052088677,0.9189801149683929,0.8820445740622525,0.8548476927575313,0.9024090601572865,0.6044405217457447,0.5175491447962763,0.7979126741130245,0.7733521919006827,0.7054319916562664,0.794293245503483,0.5975840083504156,0.32488043535889277,0.6143969687697486,0.8110719395468255,0.8137165050636752,0.7594031838218067,0.8445336852274872,0.6617414206055767,0.3664269306854093,0.636689902211589,0.862721060933374,0.822216169305729,0.8739520938207352,0.8673786731704238,0.5307914525660968,0.5281928688460564,0.8280283429509334,0.8243207963078847,0.7678589237460904,0.8062442298125572,0.5642071932530963,0.4598436311585281,0.742289377279931,0.7752845181972168,0.7344553660555453,0.8235308354287012,0.6368729993671465,0.38240425859381477,0.664775690105557,0.8518780797832814,0.9514199305522655,0.9449547567437824,0.8479094739350923,0.899604304255553,0.7442769784368559,0.4675296803405462,0.710304059868887,0.861624729304372,0.779792727389581,0.804471898819461,0.6877048561302308,0.37420713738325295,0.5191372596403325,0.7638782741299281,0.7855913740761085,0.6942446479353395,0.453068825625488,0.018930002230474363,0.07315334977048948,0.5039305452099048,0.7188987058590499,0.6610258196365353,0.7470648270481202,0.6590894258722177,0.24536806097923347,0.1707347323977768,0.5901325080592259,0.8008984694720531,0.7618827374013262,0.8632692178732839,0.8636801833614074,0.7678747828750159,0.5282450335734559,0.09095445979849281,0.11520836670615942,0.5564038026287155,0.7291604990875256,0.6433044537157919,0.7108815766189454,0.623596169126492,0.22172971744487002,0.025443698246502278,0.41277333781996717,0.7151103820733951,0.6854808401907198,0.7054800704798896,0.7764478541631135,0.5728061922081509,0.1597166592070003,0.25738863836023085,0.6810195813746966,0.808635034381268,0.7443478978738081,0.7869455383353587,0.5821089278049789,0.12471770088090395,0.03325845331025956,0.46681740712298403,0.7578669285677007,0.6808232044887967,0.7292470837080538,0.7421000211749853,0.5723868853450975,0.15509075121625582,0.08346437750865454,0.5030330408188306,0.7200397187602599,0.633861228642022,0.6841522419258057,0.7300051038710962,0.40457620456508603,0.14087576033684934,0.4794981630043109,0.8071059047927922,0.7724578159300091,0.8029372616211161,0.795560711605938,0.45585006648136583,0.14213328358638933,0.4472925339652374,0.8091495384254264,0.7621683627541418,0.7117406711547223,0.6572480818403528,0.49623015503091095,0.07303586824335251,0.04429518010601874,0.48785888863238003,0.7826532008727127,0.7346164079474489,0.7965658070127257,0.7368800120090397,0.7338507254156339,0.7209008667026295,0.3350591877137514,0.257668595897697,0.678835719048094,0.9111281336840411,0.7499058838859063,0.7263806942932634,0.7172759764343168,0.4432301535946723,0.07423369318614537,0.2960503676027699,0.6741343660729557,0.6821626708057624,0.6521111594080717,0.7047167739733728,0.47894400242499136,0.04201490635995664,0.07782304409625507,0.5256229153600227,0.7302761744293482,0.6736322953963634,0.7438019435156396,0.7671508604256814,0.7141955735090666,0.3642274058901125,0.009912420318070492,0.2727399977837357,0.6847432411152403,0.7479037643824609,0.704191160016415,0.7596135291656849,0.6553933784948176,0.24605929631250056,0.0,0.3641361474924867,0.741896421032769,0.7312137677828339,0.7042900096102038,0.7483495688279702,0.44612398010473897,0.03886487063516353,0.18152609273525888,0.6218847357300483,0.7611811830798023,0.6763599733578625,0.7533902694099672,0.7683715001815001,0.6028816011349736,0.1722564615373965,0.12145136277911428,0.5541067036977139,0.7770002723744105,0.7059363509343559,0.758850852845,0.616279924958723,0.1980604932848289,0.2691513574000406,0.688172902589365,0.7555992710088526,0.45603121029692417,0.6318254183136212,0.8469109798577528,0.7819016720367822,0.8417644248900245,0.779287747678796,0.46268515059754756,0.5917639829317707,0.8249405274298676,0.8380891962951116,0.7733954848511986,0.8312406328637147,0.8124583329049437,0.4895147764034904,0.5405151358389928,0.8275559607018854,0.8018840996913377,0.7828739153168156,0.8941622142928911,0.6837873465666195,0.43543844528003994,0.7083841129516342,0.8292917231801435,0.7809742164468463,0.8303491335788853,0.6861760446582668,0.39481691349127757,0.6383803491338582,0.8325071365829564,0.8425394503385275,0.7682678723728431,0.795511550520015,0.7676615060581264,0.4407908908745779,0.46765755696324285,0.7512471223115005,0.7780433037452563,0.7066149051378379,0.7986848723299433,0.6641010464674453,0.43563735355417443,0.6933966585067137,0.8357380807089732,0.7904835511891977,0.9276875512426415,HB
0.963365923485876,0.8893032659555355,0.9433354488736139,0.957881806180662,0.9259184229810284,0.7343392140084555,0.9111602793080464,0.8774091213254576,0.8935640897995831,0.9724086782639121,0.9365317227424879,0.7393102108822964,0.6889998000795654,0.9410030528570663,0.8769731983051539,0.9398412589596099,1.0000000000000002,0.9020095760594817,0.6741627072601071,0.8707056272097466,0.878272659345191,0.8856537361027284,0.9465170755944474,0.9469263953983551,0.8383142056090358,0.7782636121333961,0.9287930003686113,0.872103918327048,0.9353352195775495,0.9655299105738699,0.8393873568183439,0.6511919779863662,0.9271503784062574,0.9099051030890648,0.9037564935398186,0.9773398404462361,0.9602419877747514,0.8605510767577569,0.9539170140114128,0.8809487545975709,0.9176577470282934,0.964509219164867,0.9516676996309237,0.8029974553830697,0.9169623043759112,0.8870796498672522,0.9184577739824287,0.9567771812890091,0.9427070049826416,0.7271720512207447,0.8759412352048914,0.8970746830809364,0.8965618491238299,0.9710380413280146,0.9536043285650913,0.7033013992685457,0.7383472457459728,0.9722494368106196,0.8817742750902535,0.9341457437915774,0.9821610621655561,0.9201029619759058,0.6750152434050702,0.8433663847902213,0.9383372314002043,0.9073578109251563,0.8769624930347633,0.8446633516076429,0.8292262443142888,0.7458649716209698,0.27825590956783963,0.13498336419221713,0.5947601389160748,0.8781951695093977,0.9017260382868988,0.8382365863665966,0.8090594302370995,0.752515028654541,0.2789377935212838,0.0,0.4103881702953016,0.83479842760947,0.9151096203324036,0.8435433332978415,0.8043876384010791,0.7338128971756903,0.2652632444444416,0.028874054787453307,0.4649923488108241,0.8417988162446981,0.8903195195928155,0.8371631047462993,0.8139003587417541,0.7220863652801552,0.2526336776042035,0.14841918509301655,0.620748214893696,0.8812070459919659,0.8785571831468004,0.8070000970729543,0.8198749141970654,0.6007492372407992,0.12219811128044644,0.1886515942267677,0.6495494689576768,0.8973504555273706,0.9009556296043202,0.8301502029488186,0.838073961943816,0.5945128136089297,0.10180841320338851,0.14221850497966204,0.639869200620667,0.8870399663363144,0.885501814267539,0.8150049136067181,0.8144241047986644,0.5675041082966183,0.12334168297838044,0.29971508974056404,0.7576126309950262,0.8825678647846023,0.8438730508481285,0.7861045759860665,0.7443736433897759,0.3192147187393033,0.06111717479842471,0.48032891214045725,0.8627061622039054,0.9275634597312321,0.8426836480567454,0.8059721157091719,0.6694769680591375,0.17497948011833175,0.04129338980206776,0.515802717066173,0.8573348350258596,0.9000783274849968,0.8158237511823911,0.8113967121706376,0.6634877040578744,0.1901319834711308,0.2021734678700331,0.6789897119394468,0.8801332831527306,0.872609088937464,0.821041069516433,0.8250773890885055,0.4804663728856393,0.07544669234504253,0.353947596895142,0.8092156580863572,0.9316701534847269,0.88495311577355,0.8297161890677562,0.8150496646692098,0.41031618483193255,0.01764517662918985,0.31621037307266264,0.7785695830213031,0.9054300304299898,0.8653407964136386,0.8099517897118755,0.814792931048568,0.4631982949727207,0.09107555945147672,0.4096948549839372,0.8195064599772641,0.9038373302733318,0.8522040342863939,0.8080639922999866,0.7861775609356141,0.3616350174303431,0.07638631765692816,0.4740323243054416,0.8517278532506414,0.9208750133754167,0.8567137651948655,0.7977765704908004,0.7729156169298215,0.3343890286162543,0.014054238961187515,0.38111226989506997,0.7965652403652179,0.895047672443565,0.8470877586182717,0.8014155173926565,0.7690611485656504,0.3387940416253967,0.13021664252414666,0.5521860560220448,0.864230329214634,0.889368806397284,0.8299958544383237,0.819503568743128,0.6636827662642137,0.23358277404860317,0.12227923612790348,0.5761712889715824,0.8708902792157052,0.8807342991658891,0.8249239100349481,0.8358297958903054,0.6705216200242547,0.1776066189653709,0.1388748419136916,0.6311675885549737,0.9266069613828074,0.9884163938133128,0.8237335538506521,0.5989753255719032,0.9027429010519621,0.9215726040422039,0.899231613275232,0.9553868433944557,0.9488288532231632,0.8112858988394607,0.8738050837165854,0.9033853068162594,0.8916338070829426,0.9485790762901856,0.970236027858068,0.8683976129657645,0.7975248654135954,0.928624701764339,0.8757135330970065,0.9256988828002635,0.965662777009699,0.8956193687900698,0.6791663879736076,0.8899052420308318,0.9046089926835152,0.8971805889703164,0.9800104873304407,0.9675635570479784,0.8181601571237007,0.9000353985395473,0.9004332172407443,0.8927482356256242,0.9599328624864432,0.9686559554536498,0.8907376579151147,0.9154394001908261,0.898630124143813,0.9070910260668008,0.9661914547309507,0.9371352765599978,0.6958903814825124,0.7999257190861917,0.9596168827650622,0.8984071003451646,0.9624102022198773,0.9915634083454743,0.8837090659729159,0.8843886399718912,HB
