0,1,2,3,4,5,6,7,8,9,10,11,12,13,14,15,16,17,18,19,20,21,22,23,24,25,26,27,28,29,30,31,32,33,34,35,36,37,38,39,40,41,42,43,44,45,46,47,48,49,50,51,52,53,54,55,56,57,58,59,60,61,62,63,64,65,66,67,68,69,70,71,72,73,74,75,76,77,78,79,80,81,82,83,84,85,86,87,88,89,90,91,92,93,94,95,96,97,98,99,100,101,102,103,104,105,106,107,108,109,110,111,112,113,114,115,116,117,118,119,120,121,122,123,124,125,126,127,128,129,130,131,132,133,134,135,136,137,138,139,140,141,142,143,144,145,146,147,148,149,150,151,152,153,154,155,156,157,158,159,160,161,162,163,164,165,166,167,168,169,170,171,172,173,174,175,176,177,178,179,180,181,182,183,184,185,186,187,188,189,190,191,192,193,194,195,196,197,198,199,200,201,202,203,204,205,206,207,208,209,210,211,212,213,214,215,216,217,218,219,220,221,222,223,224,225,226,227,228,229,230,231,232,233,234,235,236,237,238,239,240,241,242,243,244,245,246,247,248,249,250,251,252,253,254,Target
0.4363501143058006,0.4229886365573816,0.4107463361715138,0.4312518390408284,0.4643323170420346,0.514689658190274,0.5106184600220003,0.4764439893280983,0.47457361922077435,0.45875375168982435,0.43936926758995565,0.425208505290797,0.44159872882660745,0.4741386251105155,0.4663481191145915,0.40084496215977317,0.32444966299353073,0.2482866005560278,0.1720066086510994,0.1066405716405443,0.10649698719366152,0.17638358931012665,0.25148329849492423,0.33147196108850796,0.4076837201171468,0.48583849959383696,0.5651491754438502,0.6405177517767511,0.7207226297554974,0.7755883001991672,0.7311611018611777,0.6571121364431014,0.5835795545258213,0.515138961793076,0.4577391735985239,0.42112839666462754,0.4005701040369207,0.3907789095788401,0.4084996674637338,0.4532511994227395,0.5026787350821948,0.5191379956902464,0.4744097815312891,0.4499720605569575,0.4490233411849278,0.43433173172240824,0.4252267572216766,0.4225443636574002,0.4534730124256967,0.4827496575941137,0.46063642481123823,0.3888657068544954,0.30802399057772845,0.22813042980344211,0.15453507726857563,0.10196252860672173,0.13105992231298547,0.20295171724587546,0.28016847705348535,0.35642348665848633,0.4349442934064398,0.5106915941205064,0.5914124918090227,0.6722667782287328,0.729203541739339,0.6850870394966149,0.6116837094479013,0.5428215713527023,0.48782730381699557,0.4524040328488601,0.43229986500774786,0.4232415561113525,0.44214961959806676,0.49118841000767666,0.5488445605994874,0.5995964417019333,0.5840063230957322,0.5330609461021292,0.5153215975816188,0.48853669044968684,0.44990278766201275,0.4262545125210162,0.4112802737329959,0.4334119359251456,0.44595543669168114,0.40760736744787973,0.33413742625110876,0.2584923237256682,0.17836207049609998,0.10299199625976929,0.02821975797732179,0.0,0.055743831924331744,0.12988028139843444,0.20998341664126619,0.28676049795485303,0.3642925470231728,0.444024833851989,0.5192152756970048,0.5992791667030668,0.6761435921127303,0.7508645234431557,0.7662708649858596,0.6982998551960642,0.6231340445786342,0.5474552294769395,0.4738807620204075,0.4189627104273781,0.3835456534481714,0.359275331469477,0.333489138748031,0.33357383653545636,0.3740076420000209,0.4268833763971356,0.4827051535691116,0.47985889760748845,0.4335760499075836,0.4184310871820398,0.4388582283916509,0.43904269295065923,0.42107064344598655,0.41117358813459415,0.4384786850974831,0.47156295684956406,0.4953177448883046,0.48003742459229715,0.4457654564022129,0.44246678802719397,0.460026083187959,0.4676567230498676,0.44748968863351,0.46576193821827694,0.5173261886273717,0.5317969656142192,0.48474048841208983,0.42957806654051867,0.3778055933969635,0.3533955432463871,0.3758940072617156,0.3997152176978873,0.4349179090236601,0.49128378412114637,0.5614619484674528,0.6338173952365678,0.7094715108629372,0.7848872240230147,0.8654323828003316,0.9437715772032134,1.0,0.9732043492557014,0.8990512773702921,0.8184448720311581,0.742481245627246,0.6640064857183601,0.5831124391736211,0.5065477250090875,0.4287800837636877,0.3487708962364935,0.27360509081691653,0.19430591392400753,0.1514826137063494,0.21160220033899746,0.29232993874278135,0.3684193770126569,0.436909564921687,0.46998126678164964,0.46461572050442346,0.4423405855849962,0.4511641306621552,0.4787564267690272,0.5208578340885657,0.5422947170264403,0.557557212699711,0.6084992207020412,0.6423713632673822,0.6092109589628671,0.5484788164757897,0.4933187492407449,0.45201026143768863,0.4498579335207529,0.46983205231405845,0.5020778198213713,0.5593656756212029,0.630009497405011,0.7038330098272887,0.7781353600385366,0.8519650777006578,0.9259856536675208,0.9757469823758205,0.9355619359458043,0.8592644537840965,0.7797568769817558,0.7045074750994895,0.6241745304286532,0.5445169659867857,0.46928653576777757,0.3894178865733322,0.3138110226338251,0.2378991878967074,0.2223155161500101,0.29218036955048543,0.3690446776859142,0.4448514868829112,0.5014663042419936,0.5042014986818482,0.4768133402797632,0.449119378289077,0.45588979732363955,0.4687487962119401,0.4727371396191904,0.49050605364993016,0.5412528592197274,0.567923127206371,0.5297150994057152,0.47709714144642623,0.42987201344550297,0.4143230451886273,0.4300058007856473,0.4558101371499952,0.5018463058002975,0.5707739429500893,0.6452676639594224,0.7198811682732387,0.7948449316786503,0.868663602200181,0.9406266618834029,0.9677797273957527,0.9081499679694023,0.8325948650630717,0.7541738306556349,0.6730969057145173,0.5919875793133809,0.5115676627742245,0.4362715758345199,0.35680643432658554,0.2800797324891442,0.26104844721478604,0.32560274395242184,0.4034745980252732,0.4737868176915554,0.5090030153591172,0.4962202906859712,0.4641870780473456,0.4558594739984252,0.4715124478089783,0.49385900480775713,0.5019668464053488,0.5194248924272433,0.5628098415975027,0.5513315133271808,0.5010142173446086,0.46212877550583187,0.43872515158492265,0.4496885559245538,0.4661192610642608,HB
0.8271104742971176,0.8376476483657125,0.7936475400830196,0.7305596799982026,0.6804369790795071,0.6809184768184828,0.6522012800171049,0.6071174376475881,0.5324349673057005,0.45489152021682827,0.38037404052652196,0.30635988059134417,0.22886247751150773,0.15130593363716227,0.07671664908097442,0.008119888492601035,0.0026994419071580955,0.07126312422127967,0.14782449588993074,0.22042208694825022,0.29714868137475176,0.3747478513894968,0.4502890270903623,0.523422691008564,0.6001747742250148,0.6723967138016671,0.7348122185038959,0.7945090002724382,0.8685958298048497,0.9154444657316898,0.8926723657380693,0.87201477750946,0.867010959636578,0.8676416055543044,0.8498952770358825,0.8161752141214038,0.8140886787103625,0.8190754998640504,0.8014991546485877,0.8010622605968407,0.7995552938196335,0.7900964114012803,0.7764140144069818,0.7969513171845093,0.8189826859375469,0.7849843257960378,0.7131117189458958,0.635600827502838,0.5579749888579539,0.4808621881052391,0.40805495081435456,0.3320087158460108,0.25439396659276675,0.1767949196988483,0.1013733938316147,0.030274698107246034,0.002254850369160455,0.06009340131090213,0.1370369683705978,0.21126744982300244,0.2855634709991373,0.36306407025687953,0.4384639451150865,0.5117057340232247,0.5890461044668158,0.6662078624780572,0.739077611397081,0.8149995027786023,0.8865452961524487,0.8938664272862014,0.8735078526664299,0.8646029403178068,0.8730780953225903,0.8771160382323273,0.8660366212314943,0.8360058534284796,0.8227760142012772,0.8308204684762495,0.8133145160823891,0.8081484702388027,0.8083578238906033,0.7920326845103836,0.7925039964754739,0.8221810198429513,0.8259614978897136,0.7686742455696427,0.6964422047796821,0.6197933118361258,0.5463077378996513,0.471207250060037,0.3936220655614187,0.31612223740157513,0.24211457527363184,0.1675912100537263,0.09005324691109795,0.017379350663453808,0.012335921815802786,0.08058002906800993,0.15355026402328675,0.2307833605600778,0.30707062745317565,0.37975618284471585,0.4567445602369747,0.5337262399968667,0.6064188892979698,0.6827059043215806,0.7602233645852883,0.8344567073020901,0.9037205893630227,0.9122510142205047,0.8815981288276293,0.8652316525111354,0.8645149473677431,0.8642395932859319,0.8487243586137947,0.8209706666277452,0.8229506864303016,0.8361122640656633,0.8251440383479993,0.8223533824215834,0.8157643214046166,0.7961439559446633,0.8024559375430182,0.8284582351226979,0.8037101294492774,0.7336806186217919,0.6601858451005087,0.5827848589822562,0.5077594960875502,0.44464179111791163,0.37064661238786095,0.29304429527641723,0.21542319503340918,0.13894867116237136,0.06639649509190637,0.0,0.011614948689124382,0.08399099757956141,0.15665871818580102,0.23297100268105847,0.3105904037301315,0.38821699500059753,0.4658435862710633,0.5434692927558615,0.6205586830719874,0.6933289546703285,0.7694339801086332,0.8465761180365987,0.9168947271553125,0.9364430901884446,0.8985794889496772,0.8789071018152173,0.8748232296906235,0.8788910770430074,0.8901851749133258,0.9032506062371761,0.901290458567835,0.911669696214547,0.9426033111336849,0.99517566805899,0.9867255573799056,0.9178134590433873,0.8439363501262016,0.7682243379477216,0.6953074360682008,0.6183911088018013,0.5650695286629848,0.6069718752572075,0.6831504745271966,0.7566488974544787,0.827687415262335,0.8674464813804812,0.8520599675889928,0.830561977930732,0.8362050643578551,0.8457118584662531,0.8471581920794216,0.8608796297618564,0.8557950152184655,0.8544321981405201,0.8818563024350483,0.8919861781491485,0.8935320476297857,0.8915979696270726,0.9016693239888669,0.9337893487568214,0.9882961347875396,0.9786990223409837,0.9121967331791891,0.8394267303748502,0.7622061071159321,0.6858892825801506,0.6132164003053118,0.5362619932559185,0.4658628252269646,0.4761539597159991,0.5492780590186077,0.6116154917302614,0.6655719888991882,0.7307658320932058,0.7986510963706854,0.8536853969863918,0.8573015036596752,0.827991858719993,0.8184371842051303,0.8348058734610526,0.8340131392243664,0.8342692169582007,0.8494317187309908,0.8544151633576025,0.852810122278393,0.883858316534756,0.9022859847478697,0.9030512682241831,0.8952304744342061,0.8971638202251191,0.9201727171527403,0.9712064892619474,0.9668500211472741,0.9001542152994699,0.8246294458923378,0.7517525933912248,0.674576531552119,0.5969749473576367,0.5229732907090232,0.5007744533771945,0.5660458899332304,0.6430996136159042,0.7158972880310115,0.7902393552839484,0.8473997388924233,0.8478880605715089,0.819306048710996,0.8136271787984197,0.8257005190411546,0.8265602110992953,0.8313575067578427,0.8500623865439312,0.8453198589015072,0.8470615139191808,0.8774374662856554,0.8921038131356491,0.8899037872705726,0.8957418001090338,0.9182715712686966,0.9686809593280401,1.0,0.9518340287484597,0.8793318092849356,0.8037090909735674,0.7600392624387009,0.8090006792144186,0.8666349599066905,0.870224299005133,0.8531525565700473,HB
0.668660216188994,0.7156391013765793,0.7075902112537756,0.6654354708156356,0.6787848545255232,0.6758876706812842,0.6775380499920026,0.7333464580360483,0.7856006044542676,0.8213462476738693,0.8216173827423006,0.8118859448704911,0.8167310752115831,0.8473082955968061,0.8453953247109287,0.7790634650292856,0.6987973456766865,0.6290302028158744,0.5523570996788261,0.47109730966184793,0.3935396418506141,0.312327423430526,0.2303620287912319,0.1519210375241794,0.07226067397909458,0.0,0.008471867148159923,0.08522861898300899,0.16414540245524595,0.24334400526986744,0.32542395110317845,0.4075890434482542,0.4897541357933304,0.5719192281384063,0.6540674404896419,0.7345518873433933,0.8122003718177893,0.8870650774030813,0.907118252295704,0.867135221381937,0.8285525899354851,0.7791135605110537,0.7375981367071245,0.7506990197906525,0.7996904773186715,0.8428642003763418,0.8610334681552796,0.8566915943854565,0.8459474190451455,0.8579051959554762,0.8596533905661234,0.8065153675859835,0.7264470087650777,0.6470482387210751,0.5683163847992349,0.4862929574380235,0.40412787655459714,0.32196280354242435,0.23995641777722915,0.16134410418592027,0.08278797033910024,0.026989483633110045,0.059732582687819724,0.1383757878292945,0.21601725015286988,0.29758557867388924,0.3797492227818827,0.46190467155361026,0.542729428215022,0.620408037766702,0.7018160233078683,0.7801809082512223,0.8560541772106813,0.8895166318542398,0.851062055408784,0.8133030353129307,0.7682694439559088,0.7208996336566861,0.7255564073219092,0.771979377197267,0.8191072056954924,0.8454086237116005,0.846264621619826,0.839229199834169,0.851094566993452,0.8799709351504343,0.8570996512412854,0.7829637767926032,0.7039438678224027,0.6222463987352715,0.5443187991325731,0.4639268650191226,0.38180503324822845,0.3015792862005774,0.2235334159221481,0.14206566262558784,0.0684239449311389,0.05917817874953807,0.13108948877974153,0.21316162251157006,0.2950938137802326,0.37338150756080213,0.45329814115787903,0.5354264429194796,0.6174088153754567,0.6958940213293946,0.7752330247665757,0.852121768409771,0.8941626730195167,0.8588386842166249,0.8172479359960332,0.771544244014904,0.7277191250756738,0.7366681239808256,0.7899320367864897,0.8440328487526658,0.8788963228289473,0.8814149493515591,0.8722127935233182,0.8648444200165342,0.8841801666799034,0.8952460454395741,0.8409481956662401,0.7635022863283715,0.6818507027319303,0.6032035705219391,0.5237030969791052,0.44160576176906874,0.36061115420341283,0.28300133018290985,0.20154029031274728,0.12190331120423248,0.05867776140540404,0.08143114584226596,0.15975509729935783,0.24190448910406226,0.3240695814491392,0.40623467379421463,0.4883997661392916,0.5705632966469394,0.6521203820289447,0.7297617560820431,0.8101179885390455,0.8872715851532871,0.9468547450099711,0.9231749816470407,0.8705174196707284,0.8235156097144591,0.7701781823135638,0.7206509014082854,0.7152764318016918,0.7607303512938055,0.8141717874676191,0.8629326995253452,0.912718761324049,0.9715597336772481,1.0,0.9437549330897506,0.865882617651003,0.7876096704581022,0.7099707792295845,0.6283501916204152,0.5471936086808948,0.50871052157748,0.5718293972214499,0.6522595295528408,0.7300610236619726,0.8106059036134148,0.8878929163991192,0.953660274204722,0.9413441576931374,0.9048505885414928,0.8864147776080569,0.8945162427603213,0.8996818148628778,0.8918049448155809,0.8535697097455306,0.798096477257282,0.7535143493885079,0.7738585251999605,0.8193185818167272,0.8607932641682616,0.909187566634869,0.9493392078156904,0.9098380526283376,0.8350597925655543,0.7567832154916965,0.6858485691804777,0.6931062121265777,0.7700117121786819,0.8474292273077999,0.9219275087909031,0.9428594179986569,0.9036386583627014,0.8706864520898763,0.8592811249162491,0.8637843449311176,0.8604944124059202,0.8315652752025491,0.7855213617332129,0.7415415366999942,0.7561255260534824,0.8064732993308563,0.845588839694692,0.8889383233544395,0.9395054100778448,0.9282862086201848,0.8576155168890527,0.7801916487636003,0.7010773440765351,0.6229628651865886,0.5437378927549638,0.5016841384678244,0.5623337363921564,0.6441337985323128,0.7226973083060344,0.8018506463199981,0.878920553919329,0.9275864834715939,0.8978730051879473,0.8737463497709705,0.8700952367308359,0.876826128267681,0.8756813059539397,0.8500628274119764,0.8040756513370044,0.7638764700638008,0.7864480436522019,0.8349888748481615,0.8747887361321947,0.9203878921440594,0.9615250968462108,0.9227068143946633,0.8464330815682872,0.7690664628391577,0.6880665093534719,0.622585179230872,0.6535474670324251,0.7210738680345661,0.7988870707469509,0.8777919452924743,0.9367587569453002,0.9123162252613952,0.8734211881178162,0.8404460747447013,0.8293067331009258,0.8384971605812681,0.843110895951293,0.8152287953369179,0.7695729834214982,0.7344649715091152,0.7139381875977983,0.7413472291320723,0.7932585467084217,0.8351204697642813,HB
0.07800071734621994,0.14063285908402878,0.24756989592362366,0.36443798162653585,0.48379908769664437,0.6022554103548853,0.712103277615412,0.7154272497691013,0.6065930155442948,0.48527832275607896,0.37047124666203446,0.2756743255359603,0.20602359427341843,0.13040858261406185,0.10587431263579117,0.17425105713337585,0.21695266286277604,0.19464430093606633,0.14172543750112487,0.1952561108199513,0.30133407505384746,0.4177487255242308,0.5365231047255944,0.6554425940457455,0.7462604006454422,0.6949433879388408,0.5791253010530047,0.4611055704156203,0.34695073962603307,0.2571791720210349,0.18392388422181483,0.09456683360377649,0.028139168730087816,0.08144059516081004,0.17220615215836288,0.20386315215944018,0.12421611390253662,0.037695634662397115,0.08763221912899599,0.20321105530072237,0.3236068827894051,0.44236481046436127,0.5647164204436398,0.6875408694239308,0.79457455200631,0.779502627737252,0.6675502678144286,0.5500349505148724,0.432852724776598,0.323882043779227,0.23946509934997984,0.15942228789227075,0.07093318897039547,0.02488159835191117,0.09508423045626879,0.17014259664493692,0.14775448602423835,0.0718516537107986,0.1173199769448443,0.2316784803710641,0.34961774808217017,0.469404255314669,0.5889406994998742,0.7078911150849517,0.7915658231680899,0.7266746417581765,0.6090065409025455,0.4872742774101927,0.3711148857052863,0.27059170575096714,0.2016603417037407,0.12163639250149727,0.06384925200716374,0.11951184136852022,0.2001833108321579,0.2173965676975006,0.15710799021249267,0.10324187328840884,0.18330241233734335,0.29948989325129627,0.41746573123866837,0.5391484663637159,0.6598277309892601,0.7117020760515248,0.6196890432891061,0.5028266461834902,0.3887626230178006,0.2862593774176475,0.20800399777620515,0.13079307319182343,0.06139176073056529,0.09601435431793781,0.17106159132514143,0.14903484966705716,0.07815673432723091,0.14214820494163027,0.2580027934831107,0.37746511959116724,0.5003485829156565,0.6226676804366481,0.7376084903011114,0.7711531367623133,0.6718411922959767,0.5616259814608245,0.4460888395299082,0.3329948220883726,0.24079708319264626,0.17664043365256799,0.08917402915493311,0.0,0.012057170678999807,0.10540982050372227,0.17487714755898032,0.15183725632743716,0.0768843878365838,0.12218889391056509,0.23673348890732338,0.3551626285530515,0.47448408728769864,0.5929943217308103,0.7087826052946323,0.7484952965914148,0.6491647423665124,0.5286397570023765,0.41245267114291717,0.30765756434024694,0.22852191191942872,0.16497191915863962,0.20156624834655656,0.2769236210080971,0.37013914702597284,0.4838273183135763,0.601032988981954,0.7178210363705838,0.82812205708892,0.8460191380560002,0.7472254487592319,0.6290006189740599,0.5103990074635493,0.39012229326352144,0.2724696694096368,0.19015190398290194,0.20638300053249792,0.17257958747365565,0.08816878083325919,0.03048541607395261,0.09512456418100945,0.18481971188481117,0.252716541547954,0.3448399690984484,0.45899416572113483,0.5769426255280176,0.6963605044006141,0.8146953093566497,0.9313525931823751,0.9999999999999999,0.9221908318331543,0.8039612645688211,0.6873235417342857,0.5684072083530546,0.44883706147795965,0.3286772118884226,0.23223301128076312,0.21362822752151012,0.15823217646683063,0.09506789661612514,0.1427269789161686,0.21842964595669423,0.2964147992349392,0.40145271666366444,0.5161279645048943,0.6341379513262556,0.7513844790248597,0.8494414648679166,0.8331859302428598,0.7259878050310856,0.6086258015545002,0.4890461813861965,0.3703804589686003,0.25863865851608814,0.22856342459780365,0.24699942787725382,0.19822004176041963,0.1169930392711418,0.11941284815034059,0.1988186924603862,0.26749863848954825,0.3619389554707019,0.4762530565647617,0.5941676432495765,0.7126549553587401,0.829314007852518,0.9067127945239007,0.8454696267996299,0.736673121176178,0.6370320037742777,0.5369995326342399,0.4207651148570354,0.3020348589634344,0.211295313382024,0.1999457525521099,0.14271063294413278,0.06907438356500462,0.11009386372150198,0.19488096270516297,0.27334339452541234,0.3670638388068842,0.4812867755167701,0.5983021539827026,0.7159473042687444,0.8350718429898115,0.9428244812508665,0.9418539532602065,0.835246054911175,0.7171870356592441,0.598669332294376,0.4782846770096226,0.3593299189090947,0.2500841105191971,0.23177378351808986,0.21385708138476978,0.12971994866877157,0.06512633316192717,0.12340965940698956,0.2096816289212471,0.2838014826280656,0.3798005027285175,0.4931390954757021,0.6103157381103249,0.7279098844697934,0.8339711218728555,0.8195756699532625,0.7145042254873065,0.5972182423575155,0.47803740210421364,0.3589709872654999,0.25441326647281126,0.2339237153358743,0.2335980675977002,0.17959873830272322,0.1361706456415832,0.19693871980493072,0.26503277904384526,0.3514560827621368,0.4627694266510588,0.5789258129446807,0.6961329082336615,0.8121568326875185,0.8698369661086519,0.7890033036322895,0.6731331321001331,0.5546060040496509,0.4363782656966596,0.3183812416054922,0.21814948223090824,HB
0.37525248656445886,0.3814773207073159,0.44450999886162923,0.4441035895860992,0.43046675009383717,0.4851995848991554,0.5073853184573733,0.5709501954917833,0.5981335273766442,0.5829530937242073,0.6065215524760612,0.5502002985138423,0.4550209791068913,0.3505731530681727,0.24594762322738295,0.141273029593453,0.07411053987561589,0.1284858268266248,0.22640001746670735,0.3331871797788647,0.43898763492188286,0.5432509879716444,0.6510251223363488,0.7580231515830094,0.8306138881336502,0.7761238244771398,0.6811079669808329,0.6034673669289854,0.534809162702744,0.45857760469272535,0.38429283694852,0.3628238268323043,0.43616463297226626,0.5251252776293692,0.5955036212427738,0.594883628524207,0.5948480859496974,0.5856501652275188,0.5006399393065306,0.4066698301476368,0.3084902604908898,0.20185293719907205,0.09783360802522567,0.020154602350944517,0.06934564216749672,0.17180214906553437,0.27753188397650985,0.3844586077498007,0.4880488568153678,0.5952996462929803,0.701920085031603,0.7643638996448436,0.7032096579164964,0.6213939744419004,0.5534024092798027,0.47292445198744726,0.3894209164147743,0.3501884852733167,0.4114272954770426,0.5017896414530674,0.5768540141125826,0.5889943237366522,0.5879882022755123,0.5829054869587245,0.4929290120040508,0.3874734289663987,0.2821859799446531,0.1775364274202348,0.07185887537874946,0.0,0.05502163028595286,0.15723414872927188,0.2632270026613902,0.36255095529548753,0.457104577781866,0.5570680709312883,0.6647177745010302,0.7696448614794591,0.8009638391704346,0.7166891348623161,0.6316854715757025,0.5645797522305853,0.4888552603777674,0.4069394343442515,0.3692612396055641,0.4307874677904927,0.5204357651125798,0.5936891809986871,0.6015851488433728,0.605206311399515,0.5831134716617035,0.4877668059073501,0.38391482862448423,0.278760298887333,0.1718756804640047,0.07309413580452462,0.05412971490691709,0.14662141780493765,0.25064881643052506,0.3577100857260732,0.4613368441208855,0.5681670771609495,0.6757971821019637,0.7604400772000395,0.725755113911333,0.6414441584732724,0.5711688963226791,0.49637038733390826,0.41489666848308326,0.3693084709989527,0.4218534904821085,0.5092825179361786,0.5829270258417745,0.5899143981518749,0.5929094243807249,0.5704745861061433,0.474939344102162,0.3709557196268769,0.2671957778384402,0.16178039522815357,0.07801550488650988,0.11565716073839039,0.22044252131006647,0.3241530665223613,0.430771721309987,0.5378272369444655,0.6414019668493549,0.7481845096102198,0.8246890546124801,0.7709174492265181,0.676703372590467,0.599774136618521,0.532694890551592,0.4540157388321783,0.38713718198899716,0.4067068404106601,0.48859008300606277,0.5701877588701911,0.5946391226447048,0.5925850025287767,0.6220005398808435,0.6113402496747111,0.6211379317501329,0.5815522330753551,0.5006108443321049,0.425918012109214,0.4426693490958391,0.5186923597454561,0.5894696837125606,0.6611879253721726,0.7539925254242443,0.8547434428194174,0.9534316428847094,1.0,0.9226825337502185,0.8151705041259081,0.7076790915803717,0.6044543492561611,0.5332789262237049,0.5891118675139566,0.627411407248891,0.6102387210906308,0.6208043726507537,0.5744833601954928,0.4917136836266922,0.4134769349459263,0.41908225059090654,0.490273186754164,0.5659341695433469,0.6348923059257492,0.7191300037787725,0.8171594464593788,0.9184980260740963,0.9983360482087229,0.9615250011148384,0.8573633722969134,0.7493553553507635,0.6413397483924432,0.5359738582020429,0.49396899264451133,0.5741426610042273,0.6365322259264028,0.6226921206983929,0.6292244384137247,0.5897481278926335,0.5070933366822906,0.4225112787465207,0.4038042336020976,0.4772783217437718,0.5546500398024954,0.6217320977787528,0.7028422389117519,0.8009273289448924,0.9008034519624872,0.9794531335641037,0.9403535479114242,0.8400061837874415,0.7335840915561092,0.6255987033375479,0.5252089530320059,0.5241356165336883,0.6101175757967232,0.6278876359562917,0.6068991619091797,0.6195314409085704,0.570974334561102,0.48577763008503294,0.40091432552032413,0.3862303071922888,0.4633332276726887,0.5443320720263294,0.6148348723875061,0.6896665006374394,0.7872843965717511,0.8883292351710077,0.9738404609705782,0.9526173854905993,0.8533423007524708,0.7489351261793782,0.6411219573243108,0.53837326921727,0.524526902821293,0.610151787827194,0.6367952618967401,0.6128719284955886,0.6317485074446754,0.593516827924099,0.5110225091642563,0.4239761091179578,0.3993896830712701,0.47319403378324454,0.5504028276694115,0.6188770429909978,0.6963170795856413,0.7937407792963,0.8972244035894674,0.9822288372467869,0.9564415588104009,0.8577264745232909,0.7521046041422845,0.6446716745577019,0.5415235799508499,0.4732434001031365,0.5390050155341389,0.6247152288277562,0.6219605197350639,0.6091618681773054,0.6252473976884083,0.5737558583074509,0.4948196208803274,0.4499159054301024,0.4000373825108974,0.44265381526317793,0.4931153148861148,0.5046632273847125,HB
0.2443801140924169,0.18938355771811444,0.11404009410711802,0.03640547323287324,0.0,0.05669471632076262,0.13426287093442946,0.19342797163555314,0.18189220320473598,0.19864542824368203,0.203878414433303,0.16843199246812424,0.11850901319710694,0.16299123008733396,0.25630958181539265,0.3512516787413489,0.4462596238368066,0.5442920553085351,0.6399866176569471,0.7331990839159208,0.7477975770576855,0.6606094863956575,0.5661264774646573,0.47887507749539826,0.38894281100072314,0.29798963425086034,0.22264455549656315,0.17769523620795757,0.11865929240769246,0.05298880858154553,0.0506313484787031,0.11748904002692317,0.18640819632350736,0.20147843933293896,0.1808006146574055,0.19823085870137247,0.17403293781468276,0.11099151471723712,0.14333870675374372,0.23382554782207565,0.3192842816269299,0.4031346541590024,0.49646831986217355,0.5909059655467845,0.6558399475262349,0.5991100519739714,0.5045654951650838,0.4102895138217255,0.31820241243737324,0.2418858611667174,0.1903244304321745,0.13236871454345744,0.06381470863341987,0.053681210082204056,0.11612716521295408,0.17855472422023888,0.190969489709223,0.1296521913139248,0.05611245028169787,0.09187441066969604,0.1839760243363524,0.2787022248049962,0.37659298203500335,0.47343849403020855,0.569915463465257,0.6675196710759497,0.7508346436437205,0.7369399888131212,0.6554069971253631,0.5595498389833142,0.4650626412516161,0.3716506128878123,0.2848501803872192,0.22201843608148863,0.1630427403394381,0.09976817175362251,0.06390623828333153,0.1110051886514336,0.15863640376088772,0.1866269604593852,0.19543778410578616,0.16316246927351785,0.12311255751040417,0.18332990222623602,0.2773501640303204,0.37253807731397015,0.4676261080296449,0.5661004215314069,0.6656359454971099,0.756891432599182,0.7612313571393123,0.6739620124966155,0.5787949564875101,0.48355093331736043,0.3901040140795822,0.2993136906404621,0.22486437959337946,0.1715493298861609,0.10901740003941252,0.042424932833626805,0.04023990444323877,0.1062126274645726,0.1698159543838249,0.1815972758034109,0.11054408456113307,0.03427228612003219,0.065023825136864,0.15809285801353423,0.2536398917647622,0.34945675058657377,0.4465691693279077,0.542698656577612,0.6397922720438509,0.7360643973779812,0.8108971256605695,0.770495661553694,0.673231527997217,0.5737533193921056,0.47738123325355075,0.3824584561798774,0.29195559666275495,0.22141392299663343,0.16826011608658586,0.09673614599872782,0.030332589416075084,0.027319571529443754,0.09888154038640973,0.16910269547191425,0.17541030238168975,0.10881161265404204,0.05150707559663148,0.08839698734136547,0.16183064858196883,0.22020122724780222,0.2834401521098848,0.37255418885742286,0.46760195348917155,0.5627575826734825,0.6594223413879143,0.7547999504174427,0.8505328243968795,0.9457971780527759,1.0,0.937580538091968,0.8469187040582653,0.7536642181067543,0.6558619377665806,0.5604669569498104,0.46225344536434565,0.3655054826305406,0.27040444007548214,0.21184727271218784,0.21261571903092724,0.16615974155946,0.09919259840682004,0.07025229043086234,0.1285870276476705,0.1903764551008169,0.24323458025360467,0.32162998221452344,0.41390086544070326,0.5080081968095831,0.6039267967555475,0.6988192769148474,0.7916118786544375,0.8394989257778582,0.778017406926345,0.6842132771302034,0.588102280743511,0.49102461642610584,0.3951091300053231,0.29952753030029755,0.21840823320805236,0.21081292400902663,0.21691679337944392,0.19369914355106965,0.15620859146433697,0.10147617849380541,0.12415272023783674,0.18774556467124903,0.2447918422580857,0.3149565817616038,0.4047184428628412,0.49873075870537,0.5935863176739498,0.6901080996735116,0.7856697449523713,0.8799274089314877,0.9396247992854807,0.8835148521645348,0.7924315838576819,0.6990623547241976,0.6024990924910234,0.507213626046009,0.40889759590216657,0.31265114899386925,0.22245137990620623,0.20410518688000756,0.21884197635503766,0.18348049895076857,0.11935305240676042,0.08142343782287587,0.13324062650780444,0.19376261320644317,0.24472710116154106,0.31851198746977927,0.41002036395773667,0.5034513462596013,0.597737051682476,0.6925674340251251,0.7840191289458289,0.8082105073193351,0.7388656707380277,0.6463685306015792,0.5514310604125667,0.4563991100297031,0.3609312380204326,0.2681056839572249,0.21776731907757474,0.21981668440948188,0.21014388974166642,0.22571155747922556,0.21106847105166726,0.14474717743857013,0.07951621040091705,0.08781556921549749,0.1541607644037135,0.20921431812698166,0.26776926519686084,0.35436623225434083,0.4470956510688253,0.5417962192934231,0.6375003247987401,0.73250116832697,0.8269214024436464,0.8924610543432123,0.8494157172249863,0.7572500692810771,0.6617737242450996,0.5645671477837384,0.4679092800628202,0.3716410844240037,0.2769702090289119,0.21006350182727596,0.21797792800163118,0.23325068228335788,0.21505402352710035,0.21646897156618616,0.1641151276435595,0.11613700326398235,0.15541872569358273,0.17028020682017764,0.21523303739165367,0.2724028106042826,0.33618923806732237,HB
0.7210775453808261,0.7524056410071108,0.7137826346088749,0.6496019281903026,0.5751692164221458,0.5017180408783133,0.4298669230971408,0.35477277989286854,0.28077353159035173,0.20934424867349938,0.1376510244356991,0.10321924792237204,0.15680128170180785,0.23161606028675746,0.30352837372709485,0.37690379600723556,0.45220807323421325,0.5275438982725895,0.6028787808226077,0.6777322029355763,0.7436200417018185,0.7576634825160651,0.728644382429045,0.7447886457014199,0.7903342001727452,0.7947049637953937,0.8406180852729749,0.9124608232956177,0.9443545735588055,0.9258774907156446,0.8954241735185069,0.8570254741659963,0.8171861097527702,0.8035848893664503,0.8414873740016925,0.8915406998352882,0.919454393036093,0.9100288614052701,0.891872804642041,0.8791068177317819,0.8849559583394674,0.9006523606008113,0.851230633954251,0.7770787191402464,0.7049610030657093,0.6318303447055431,0.5567818361126985,0.48497555465270054,0.41146850940691465,0.33619480944836855,0.2628951772185262,0.19093363560138393,0.11736500100873389,0.06345689174625689,0.09265108641953655,0.16502856639217406,0.23634813450783543,0.31107116734941553,0.386405076671695,0.4617407334219708,0.5368455061871497,0.6086935641853639,0.6821499452978875,0.75745718505491,0.8326055132358737,0.8920011357450757,0.8898631709064019,0.865302635243862,0.8298770789891129,0.7896670187073411,0.773310938486102,0.8089964200636894,0.8608936041170003,0.8966931836752907,0.90346196922878,0.9012072775002066,0.8958259001818354,0.9079265385087656,0.9233318036285009,0.872723114316395,0.8021862695590554,0.7285915905289372,0.657290596879598,0.58262545984856,0.5082509953898197,0.43693718255424946,0.362239889318371,0.28690617945492886,0.21157035441655186,0.1362452842957974,0.06231319401895906,0.0039054982421779655,0.02459401651148052,0.09655804941311326,0.1679054119969991,0.24216170319295582,0.3174906708149729,0.3928264958533498,0.46816133370751906,0.5430388785170912,0.6144641227183971,0.6885527834804951,0.7638771969113863,0.8386706243807892,0.9069090399495499,0.9334109661123838,0.9177340831775871,0.8906424385768622,0.8522884078470933,0.8209756673468296,0.8360791041740823,0.8843271074850065,0.922979405422679,0.9305193099972175,0.9140409514353146,0.8854572681266627,0.8676053842240508,0.8568366182370885,0.7984166461292,0.7245376345772881,0.6531794415502297,0.5790184681638313,0.5077027710239804,0.4334104951914912,0.36068714340217933,0.2881946154633392,0.2129681954632881,0.13875906227734935,0.06743567755015704,0.0,6.962156573914885e-05,0.06764995212841445,0.14269327467911092,0.2145535718091588,0.2879945321917042,0.3633012076572901,0.43863703269566584,0.5139728577340424,0.5893086827724182,0.6645457486195703,0.7353792207226347,0.8006838306349975,0.8185813509903092,0.7873496570712543,0.7536995442367356,0.7216753927881023,0.6883907704296773,0.688917074926165,0.7345990267695905,0.7910131050040413,0.8425404851450156,0.8782805327159383,0.8899967612706953,0.9081839648967681,0.9144781161993903,0.9056517912028966,0.8800265840320063,0.8355841310920004,0.7814092969758922,0.7278299357302369,0.7057832332058934,0.7348207054568076,0.7677706471856148,0.8023710050050503,0.8391064742460717,0.8875899578091355,0.8780545059548319,0.8097750691780038,0.7357685852794569,0.6643621481724056,0.5895061999425635,0.5141714583272894,0.4388356537044767,0.3643262281152847,0.3269313227038583,0.38107379190232216,0.45302814440728995,0.527434870311648,0.5987261417492515,0.6731519872308088,0.7456240040574214,0.8166044202255851,0.8746194258325716,0.8950840464802715,0.9035843966540802,0.9307853691598608,0.949940265968475,0.9495646609417847,0.9233893817630255,0.8772981943254556,0.8450433490293773,0.87254761392099,0.9105493013262818,0.9367426579659155,0.9583975822369251,0.9754428263538772,0.9268577706838845,0.8563878066474376,0.781689724133634,0.7094452953898099,0.6364722686976428,0.5673378863367143,0.5708673668145622,0.6412397250311094,0.7142660029912803,0.786466379832091,0.8615885480532777,0.9305303862644978,0.9529827958394812,0.9279728911875447,0.9192709407357778,0.9220095272332779,0.9215965307377412,0.9018993023236643,0.8569717468544173,0.8086307870054003,0.8020905293604527,0.8396052676976401,0.8760813360201074,0.9033833078250539,0.9294041921962392,0.9435377178481796,0.8882102976468694,0.821831015191411,0.7614876767910181,0.6913332372948658,0.620351278696935,0.5908648795413183,0.6509491934792799,0.7239681359458928,0.7955565638577243,0.8661319454665226,0.9214779767963849,0.9172873996363636,0.9027714620148989,0.9088103595815836,0.9227920967024544,0.9396497589776327,0.9311416892789248,0.8912574838056108,0.8419351482796623,0.8288730012065177,0.8648730759763046,0.9047740475174268,0.9368823005179956,0.9635272938541457,1.0,0.9800677474669093,0.9086450668034027,0.8338641942383229,0.7727109055925745,0.7893174689136347,0.8582866648332019,0.9280286702300001,0.9730895004131883,HB
0.6777265308379843,0.6824503137935254,0.6258198274908859,0.5401455964756205,0.4715509649495002,0.46830976311374917,0.441487563005837,0.3937317875471147,0.3137559845220179,0.22448766400434783,0.13724811795338276,0.07475941396836117,0.11541159538769374,0.2051269495365955,0.2924499513805643,0.3814568467998589,0.4614176512684758,0.5351460153506225,0.6055849213618982,0.695363096475947,0.7750975256802584,0.755065232416319,0.6996910318878578,0.6764174903162621,0.6639883130307933,0.6416206500508461,0.6317543229187006,0.6319835464195616,0.616920839406742,0.5997040977742867,0.6162086846939956,0.6616921591696712,0.6693719932821085,0.6106746188934433,0.5241025125673799,0.43141290220400674,0.3437535265370464,0.2531001114625915,0.16140457324078583,0.07457185357519758,0.0,0.023693271838405416,0.10890311018296917,0.20016332308817353,0.2872963612662143,0.37993448191991863,0.47284063908242113,0.5604003698264686,0.651195841590025,0.7429862869568313,0.7814077611588195,0.7237456513464633,0.6857798421017924,0.6761486982832827,0.6608665995585301,0.6452625382134483,0.6352230737731634,0.6181039399407058,0.5946894157971163,0.6125206562622847,0.662071008672908,0.6805093280636871,0.6353128363516789,0.553028379908282,0.4661231711743459,0.3777822680594607,0.2884638702202995,0.19724359316628426,0.11999806253717626,0.04543458707909387,0.053051788444266945,0.13514102955190987,0.22627310608396956,0.31339678445434727,0.40602539676108496,0.49842993438438765,0.5854170886609218,0.6772593066801138,0.7687039808807974,0.8321632058734554,0.7902285917044609,0.7204486902615077,0.6909065297552497,0.679360791560073,0.6583334908198892,0.6470404790188864,0.6554677303308625,0.6509241979837574,0.6275631246950419,0.6421278199165366,0.6886682373213615,0.7063262068365264,0.6553408592908383,0.5715369295332904,0.4849015656912583,0.395588612931407,0.3086663036909749,0.2169933224438103,0.13705575374252554,0.09440222464265646,0.1516299152332139,0.2379347969742025,0.32990882184812564,0.4194193874598773,0.5080558982358905,0.6010004342562945,0.6893193876066022,0.7785964501895419,0.8350899437683774,0.7831718470421527,0.7233219272661977,0.7036668154072168,0.6836187450793243,0.6589959910779435,0.647595717373487,0.6432179081925526,0.620707052450068,0.590029578813249,0.6082253648516904,0.655384066807764,0.6724093950608245,0.624695051811188,0.5372475010448285,0.44502574961409236,0.3580741138500061,0.26662267621939173,0.17932492268492095,0.09284426659911083,0.058180663650744924,0.1259490731220656,0.21576682966446148,0.3036588401014009,0.3966846281273717,0.4893984435857661,0.5766188811489683,0.6678715059052784,0.7487419348026014,0.7359513567855243,0.6915204517283746,0.6766270362968803,0.6526973869886081,0.6518491784102689,0.6815167881197461,0.7030495156162055,0.7185218626001144,0.7706385762723793,0.8503932249321051,0.9296467298401072,0.9454966700686065,0.8726046010141049,0.7864508584363818,0.6958093075390195,0.6052487869315142,0.5200457814164468,0.45908147538416455,0.4978273267577855,0.584247737047227,0.6611679197690365,0.6978264203588525,0.6857546564006847,0.6434474522297817,0.6314273956535867,0.6571807216758601,0.6713662164314527,0.6758394294937964,0.6930378467976137,0.7196511378577701,0.7329417202229827,0.7809560474194812,0.8590624644700093,0.9433858637672001,1.0,0.9578298106795755,0.8737879234248225,0.7814927805812117,0.6881541668621041,0.5948183878571971,0.5029056007803863,0.42594127068790244,0.4447791091143114,0.5309053618353368,0.6181860119971672,0.6965270661536025,0.733225141011655,0.722133682728717,0.6788427816580431,0.6603832669009322,0.6814948017610858,0.680664065141336,0.6717342149941699,0.6861536132851684,0.7107628706151321,0.7221586847523889,0.7643044144990245,0.8422172372144168,0.9295150684338367,0.9633909180381888,0.9004955649449475,0.815536012406644,0.7245848703005844,0.6358151983344542,0.5464593329702201,0.4557364908248007,0.4292538517217279,0.5076473415088627,0.5997612827867063,0.676788110303824,0.706695114275486,0.6924385074880164,0.6474987560930112,0.6321661685770987,0.6543515149891015,0.6664729376097152,0.6804685095672338,0.6913185423490318,0.7040103976628995,0.7209763216851863,0.7768693442232244,0.8570362374605762,0.9385525797304561,0.9673215525343579,0.9009775619706211,0.8165823078997203,0.7257095825486597,0.63685872369954,0.5475889879933833,0.4546431414108152,0.38918273443202933,0.43773383635036,0.525721283435922,0.6110095916420804,0.6835015051289355,0.7055952918417492,0.6834184843132294,0.6382984453454006,0.6362687749494014,0.6554642910368729,0.6614772955990513,0.6599627957253655,0.671535241641283,0.6938209521409051,0.7077180530558718,0.7516250867086958,0.8280927722632982,0.9028632444278892,0.9608355704025018,0.9275590975820833,0.8429489448050009,0.7558282904756837,0.6635017862085382,0.5830569345159486,0.587271774689968,0.6608903928130005,0.7101109292866394,0.7079662467002152,HB
0.7972478052745833,0.7471517721639929,0.6941933989411382,0.6402090691188858,0.5872756762062482,0.5350830456383815,0.4847101262959238,0.4409002281297495,0.40813999372733356,0.37152236559918017,0.3331628631017277,0.30615990428869866,0.2681985082627981,0.2264035746185149,0.2152876549943551,0.2499079508117784,0.29703461313617685,0.3433247536463869,0.38781862573853265,0.41605146814863814,0.40633803297820414,0.4095846470625606,0.432261300249561,0.4290796512652574,0.38319077990070205,0.3302482870574688,0.27633696237715666,0.22314715453158895,0.16989928474922478,0.12489380210353085,0.13089690531058384,0.18117607948773962,0.23703618753082922,0.2927301814619053,0.3455657258526843,0.4001970723408321,0.45511549992969547,0.5043454279200987,0.5586300002100532,0.6136020733340555,0.6662329088596477,0.7217776715969375,0.777729662644983,0.8336747743559332,0.8857441429679527,0.8843583250584195,0.8322585578026889,0.7797030519041734,0.7252010606891799,0.672680832766686,0.6189890634498619,0.5667283442055902,0.5154766421402913,0.46810923340047517,0.4286975591303036,0.3962286042733335,0.3573468091293439,0.31145175316205087,0.2654420414200279,0.22322320266755202,0.1963015228479421,0.21105964402469357,0.2529272518110749,0.2988712336608943,0.3456802636443357,0.3742627407734238,0.3615235195160653,0.3619678930014717,0.38738093332208146,0.3983597708168959,0.3638206828104362,0.31192753531397466,0.25802406472859585,0.2054797357351249,0.15117517260506896,0.10530144627876437,0.09438202363052695,0.1394909325150976,0.1928227723073035,0.24867025547286914,0.3045657427635333,0.3583551978696936,0.41190322508913124,0.4677728686001693,0.5237257483115655,0.5796761165598493,0.6349854129051868,0.6875338883735178,0.7428308840410134,0.7987812411502611,0.8547234860208255,0.9061164876701857,0.9028425326956031,0.8528273482551694,0.798400200929472,0.7456028382526847,0.6906498187243906,0.6381003089891508,0.5827324924220504,0.5279614785528421,0.47829384234190475,0.43372203183763514,0.39886395942874875,0.3645116958948612,0.3229500591465788,0.27790456399647623,0.23158626410157912,0.19982394661313152,0.21469458162310184,0.257259522160485,0.30305640397824407,0.3488365044791425,0.3894858322855346,0.39559892229971505,0.3898288439353542,0.41088593112287475,0.4215834611064483,0.3888793047530019,0.33613232382847524,0.28337120242833047,0.22984447655387952,0.17669449458408593,0.125618095855483,0.10553145551066029,0.1485601532702463,0.2043511428301792,0.2603040225415759,0.31625690225297187,0.3722085772420284,0.42769629091894734,0.4802887396122216,0.5353644711255233,0.5913123950916679,0.6472621685137858,0.702503004995648,0.7550567194299362,0.8101408336630072,0.8557408501756432,0.8468538258403842,0.7947266763288585,0.7421313401297764,0.6877301817769097,0.6350355909382808,0.580777305163465,0.5310229795098218,0.4873691759291403,0.44104689762340543,0.4032492730594338,0.3689420558976457,0.32779922028950315,0.2824189722558038,0.2369480212516203,0.1961203604870655,0.18779155773327083,0.2226388634967389,0.26921885896945696,0.3157590743169374,0.3503286245880013,0.3453694407069886,0.32869304012796186,0.33950115239619416,0.33438527302393073,0.2930017018639738,0.24632646249795787,0.195374882567258,0.13953444059024478,0.08360871390274338,0.029914315246672707,0.0,0.03412337409249605,0.08630107308354534,0.14120426456005175,0.1971492830178304,0.2530082495273035,0.3064701854731041,0.3603495444839938,0.4162519001530427,0.4722047798644373,0.5281574013014945,0.5838678988287107,0.636738067591389,0.6913226561742343,0.7472578333097348,0.8008800402117577,0.8086697199738222,0.7597228874250779,0.7066506325595803,0.6508661172355272,0.5949333923204034,0.5404868828230224,0.487899978608215,0.43582233864514575,0.3849587256083381,0.33801943649246413,0.300303063561727,0.26618041411700544,0.22810373309063947,0.1847634519122784,0.14003502603193496,0.11393995537547147,0.13552898923614776,0.17830514540603404,0.22494175754405799,0.27106423323819806,0.3145000302600073,0.33072312958191974,0.3313649809229001,0.3575607474647092,0.38684138456456874,0.3972039369338004,0.3571342529306146,0.30390209623757136,0.2503196917575843,0.1966314634965758,0.14427409486569143,0.1082421253139178,0.1360199271565986,0.19105619188722878,0.24700828874876923,0.3029611684601662,0.35891403729294025,0.4147558762904022,0.468116078312261,0.5221063564151689,0.5780166612988601,0.633969541010257,0.6899163982185792,0.7449249488475489,0.7975452413335771,0.8530396617491995,0.9011860058687573,0.885971748310658,0.8346553933467229,0.78019691245456,0.7273939125377609,0.673220632861165,0.6207536383625499,0.5682339345268278,0.5164223029343399,0.4682355064761008,0.4282114686361488,0.40131568754868996,0.41112060443584186,0.44294762159702206,0.4825539486024213,0.5334581114334768,0.5836816610499429,0.6312398627401972,0.6833939402650135,0.7381265654416778,0.7909134803986335,0.8451034506400428,0.8976490142507849,0.9514189766986589,1.0,HB
0.5319697196875416,0.620434751011469,0.7199440986839808,0.8003888955308726,0.7651604294129443,0.6754595943846301,0.5999905571216505,0.5500428332690964,0.490551670608515,0.443449111909206,0.4072707862303728,0.35354799906473033,0.3049023608379108,0.34658737908382975,0.42830744705624224,0.5073865610194551,0.5636657079199038,0.5612888838409348,0.5414224842242589,0.5447379954450319,0.5705221420733512,0.5172607464286002,0.4226081743132757,0.3263504931145884,0.22946132600349678,0.1310867007317198,0.038104631030599134,0.0005673357928883682,0.07747461185131976,0.1766078289199191,0.27239184796239935,0.3699697474349595,0.4696724091128345,0.5694101148610585,0.6687845520522494,0.7546260316576355,0.7427831334463973,0.6575656466545704,0.5908881493145045,0.5422550803721634,0.47509192878444506,0.3922879837651071,0.3270301906389662,0.3531603666494063,0.4328559033926539,0.5105805685844625,0.5625178098730187,0.5605708191506568,0.5362638227761077,0.5528300382380457,0.5572247056512959,0.47920226837299185,0.3837710886019948,0.2849913179237452,0.18985175363773032,0.09519445724165931,0.04427715181538561,0.10838110353956465,0.2055892926117021,0.3052959210382422,0.4044945289941979,0.4997975072995485,0.5981028710638719,0.697801732287325,0.7887859892056793,0.7831505594153886,0.6966294492468422,0.615897739610627,0.5610190024121987,0.504428011035558,0.42963248176380153,0.3508643293837094,0.31872863186120415,0.381022859353114,0.46437907679990753,0.5335721345084184,0.556715499239209,0.531851770894841,0.5128439677135935,0.5453881895598786,0.5394547658211953,0.4563731000520628,0.3601380392367557,0.2735540643192711,0.17838543355114522,0.08277282525103269,0.0,0.020281775306556726,0.11567388909930021,0.2154032328611044,0.3146018408170602,0.40990481912241095,0.5082056535730585,0.6065753740827725,0.6967129635533639,0.7832887289879921,0.7851126741422375,0.6990941673757981,0.6185759018118301,0.5626933761085154,0.5062583539281876,0.4308308542736131,0.3510208024992717,0.2989274123746143,0.342739364750523,0.42537269664136046,0.5064628245383432,0.5559090356943496,0.5490800606227068,0.5248686149413492,0.5435904019866552,0.5581887925815819,0.4873600491916913,0.39290755673365285,0.2940029197064381,0.19820529409371268,0.10093773985875565,0.011510312754907659,0.004316677642671518,0.09175843157914443,0.18714882543020728,0.2864632737404764,0.38620062723406334,0.48593870506869685,0.5856767829033319,0.6854148607379659,0.7847826122894698,0.8538269555993984,0.8005153396295738,0.7091636274568988,0.6258347877482743,0.5688630313744655,0.5143113763583439,0.4398286740605464,0.3629146400804766,0.3042508379732898,0.325345839434241,0.404339145483091,0.48690330998082587,0.5490957306445093,0.5688756138438583,0.5226973454419804,0.4461280816302313,0.3660999136916985,0.3442201448879364,0.4148212029502881,0.49272904197690226,0.5564994541719795,0.6078140350315425,0.6813373807258553,0.7716567979736063,0.8653951419066134,0.9578892792451189,0.9999999999999999,0.931126548990351,0.8339184838887169,0.7343989577722873,0.6382797642438639,0.5425938566875891,0.49769701036380287,0.5628328311909171,0.588601491738919,0.556130143677999,0.558967488415055,0.5803631495607203,0.5694587127200564,0.5081347774761914,0.4269946937829884,0.3515363338797374,0.35503107685607294,0.43314309661703887,0.509363796011748,0.5681933936798981,0.6140248816910733,0.6897353732071937,0.7817532679008833,0.8740093315575487,0.9553777633756121,0.9853836376008406,0.9058290986819532,0.8096770562520822,0.7127355053262704,0.6130727210548516,0.5135439967073857,0.41974388640575455,0.3880566917922097,0.46970640658818474,0.5549355300190636,0.5761859269144468,0.5419522982453949,0.5507176299016047,0.5775425792014842,0.570014155439626,0.5142196543380887,0.4340082086377337,0.3628784581337221,0.380170321431316,0.46093840110799067,0.532833316164362,0.5850001875191545,0.6450683007504135,0.7328916843782668,0.824854285130299,0.9183032625831161,0.9840497119623565,0.9397754080605137,0.8550426302595456,0.7585731071940941,0.6588751147047162,0.5594095304802472,0.48624345730215135,0.5313388431472569,0.5905987859457743,0.5766026499480724,0.5624707712189391,0.5861370952383745,0.5828761768332006,0.5304943967499617,0.45299938086705005,0.37494430089105024,0.3794761656810832,0.4565324099828961,0.5329310976064859,0.5872700668632497,0.6411449446033882,0.7236944498443526,0.819340274828866,0.9149329726553471,0.9917596218559125,0.9663376631914876,0.8736483885675662,0.7784907456705018,0.6794199835382467,0.5796843941236484,0.48164644238709453,0.4409010281170279,0.5189243912270628,0.5936929204043123,0.5905884452466182,0.5623202491229485,0.5758903101968246,0.5918948949194361,0.5667010776220635,0.4994096887605898,0.41714348593989625,0.34627855753601844,0.374875147741357,0.45022432825523007,0.5232644897984763,0.5781166184275385,0.6311312708267286,0.7122716240651509,0.8062473629769084,0.9041505855489754,0.9877094817275572,HB
0.43217795454253793,0.4657848637809665,0.49196388812886094,0.4815183606915352,0.45195898497377174,0.4385867958838353,0.4851547423055328,0.4711471509340488,0.39405694400122704,0.31019503313209185,0.22444427742539652,0.1370026080428,0.051223104637165284,0.0012547191794247126,0.058122706759611786,0.1474142539504007,0.23750228012071872,0.32759084196221333,0.4176789840216564,0.5074731971203467,0.5941377231440703,0.6826591351536316,0.771933189731527,0.8281141226010068,0.7768861118319074,0.6979638070035868,0.6468698825022605,0.620620723549426,0.5641265827325593,0.4981689527882821,0.4515809447045068,0.4708836920007827,0.49656109678681004,0.4925866234017008,0.4493322215086635,0.3695078401191806,0.2845301250248877,0.19705733001557202,0.11077970034729884,0.027712360652033807,0.021122604337667994,0.10157175148910536,0.18844739672679567,0.2766209596720416,0.36667292076524627,0.4567605745168548,0.5464407715576324,0.6328740993775065,0.7180871623220818,0.7924621486764502,0.8582264999833918,0.8636957965617146,0.7870856203806186,0.7051090008667372,0.651266065042388,0.6229074391886875,0.5642014914690461,0.498675764595066,0.4464017053051338,0.46203220821570734,0.49738226082660464,0.49695153820636473,0.47452395998155417,0.3997002066018306,0.31577568789392985,0.2301326471411831,0.1431795663984471,0.07146169291988275,0.09612491122911138,0.18312876813262674,0.2732130613912207,0.36330162323271586,0.45338309871817384,0.5424708502464473,0.6288283034625444,0.7182097360283776,0.79047598815632,0.75910624884959,0.6835159984497943,0.641285195554953,0.6105447065789535,0.5508045187849476,0.490434727715399,0.47293960316772665,0.5075288908843661,0.5185612599396946,0.49003137475720016,0.4147034236112339,0.3307208917274055,0.2451157957914597,0.15881530573481983,0.07324648488522029,0.04479449851899764,0.11673782683146883,0.20635185269324796,0.29333274839078927,0.38144700600667736,0.4714930518990834,0.5609745726127078,0.6473157699971673,0.7364334185816009,0.820039411180827,0.8245424319069593,0.7479855360469098,0.6760048262047581,0.6467520718364328,0.6049090847071722,0.5417550377501792,0.48196225338810283,0.47477112851608017,0.5023170224639426,0.5014306152934935,0.47565556855055546,0.39972858036323833,0.31600616335529297,0.22945614096523204,0.14273333917424924,0.05684786199535147,0.0,0.03731789848651079,0.11862023906722291,0.2084717221415926,0.29856022432098284,0.388648786162478,0.47873734800397305,0.5688242969363033,0.6583875004306139,0.744759371972903,0.8305803960555388,0.8514466538407234,0.777869365263857,0.699092759632511,0.6500116540232935,0.6239109262636444,0.5665033423301,0.5011754141304519,0.45796992383403645,0.47894763003403573,0.5071165223625762,0.5027239146257755,0.47779856612765326,0.5165751502991555,0.5804725065216302,0.6392211571389915,0.6665142925213313,0.7160247323732486,0.7964805920269636,0.8805370830888218,0.9591234234134721,0.9686876514462522,0.9024101902735037,0.8163438857780946,0.730072573762461,0.6408052687891929,0.5510025818452468,0.4643103380338742,0.37610505572401665,0.31124855154437603,0.3555261280600308,0.4371504169823446,0.5043442196117992,0.5248781164499098,0.5194654541734698,0.49198439334191957,0.5223025959348645,0.5875837454229904,0.6446250953584626,0.6728002380283424,0.7211807174947452,0.8005122200157179,0.8869494826548167,0.9685889680538559,0.9762721951848691,0.9006985911231026,0.8131750779589032,0.7239311994360574,0.6376185691398449,0.5489695398744215,0.46589417358063023,0.3815167740600618,0.35772225608300645,0.4331460583068141,0.5073588462982784,0.537220152341407,0.5322875057393252,0.5005618087355592,0.507414737771653,0.5656997801314605,0.6249579471410867,0.6568865104342231,0.7010173148326523,0.7797630853887062,0.8642264637568146,0.9485007768864945,0.9987404211091168,0.9428383047982766,0.8568248711010066,0.7683353746500104,0.678720918825226,0.5922839465864802,0.5033870383655394,0.4133625144268017,0.3349059420781567,0.35338529131414775,0.4335105900512406,0.5019918667715755,0.5180856616964422,0.5186700713970467,0.48700573150366333,0.4706596834500224,0.5255462780511516,0.591792911006414,0.6446880309918878,0.6733783279033775,0.7343821813011467,0.8167092579881069,0.9026563018395398,0.9856368849926204,1.0,0.9259977344991007,0.8398201720642645,0.7508888178491423,0.6645748053285823,0.5752525391713407,0.4851679358492077,0.39623636357521763,0.35225910573838937,0.4169059965011589,0.49085420747643826,0.5158456337846711,0.5159880458212666,0.48681578246633306,0.4805199830810003,0.5371372432277712,0.6014524236605207,0.648386212658062,0.6765956098851605,0.7441132357750798,0.8268399592444869,0.9109929944106644,0.9749479014776322,0.936923997025893,0.8521608629705021,0.7635356161616341,0.6757740814825601,0.5884930726423379,0.498528113148641,0.4084850860349293,0.3289241181953265,0.3437542279426772,0.4242713307475401,0.4962846563019526,0.5182283402363015,0.5121363362099087,0.4837081378536626,HB
0.0,0.0356125644670818,0.07391252973115822,0.10972685181110423,0.14554446890742567,0.1838462611363768,0.22220641644729014,0.26056657175820347,0.2989267270691168,0.33728688238003013,0.37564703769094343,0.4140021024724665,0.4512912103013336,0.4858874172466901,0.5238849574857636,0.5622447080730193,0.6006048633839327,0.6389650022554998,0.6772051041207794,0.7124743516440606,0.7488681018567169,0.7872025337660082,0.8255626769800444,0.8638120067559294,0.898759940124779,0.9229309695418804,0.9291679938347155,0.9395324799263665,0.957330957113264,0.9555651341197555,0.9304622445916892,0.901312446580383,0.8708916043397985,0.8402467791527493,0.8072990688634518,0.7813442650258355,0.7742683325615678,0.7947403179011021,0.8163055483544275,0.8295909830645161,0.8458366150278616,0.858372071291051,0.854464447015638,0.8414788560748578,0.8109183514195237,0.7953749310806464,0.8252604843378994,0.8606964963718666,0.8809893846505519,0.8717986187833258,0.8773214211823277,0.8731370590288032,0.8577724883677191,0.842499610357182,0.8293424986253994,0.8074034105700849,0.7980438174780224,0.8222799619740673,0.8520834377279556,0.8833661019827417,0.9159899982361897,0.9450437003859378,0.970325734747409,0.9786821646065815,0.9657018328762843,0.9488729991637159,0.942517832718458,0.9305463853696516,0.9021396943231528,0.8674599423535039,0.8324348323099531,0.7942492623636259,0.7571149437410678,0.7224233151180779,0.684364430035324,0.6460045152811571,0.6076443599702439,0.5692842322650249,0.5311158484136715,0.5034048949617527,0.5221154651154871,0.5599722391464643,0.5952048014678062,0.631642563112677,0.669979612350478,0.7083019355294833,0.7444026521857192,0.7799117876957795,0.8160769173198998,0.8497407587101122,0.8655994769770792,0.853469705418491,0.8443013292250432,0.8527030430838152,0.8605156820936646,0.8570950258585255,0.8420282167736846,0.8266660063775999,0.8050850213232994,0.7915962302156767,0.8132589634969947,0.842815092991724,0.8727580794456951,0.904019397206941,0.9353410237278446,0.9616072469434567,0.9801568828911837,0.97903311466442,0.9661445609542296,0.955080130845614,0.9419736663459573,0.9196778497659399,0.887988222018586,0.8532253676233821,0.8177823176863526,0.7817546459870284,0.7434352289032908,0.7050752871838968,0.6670000410211707,0.6322750684795677,0.5951904037332563,0.5568375585212151,0.5184774032103017,0.48011724789938826,0.441757092588475,0.40339693727756165,0.36522976985444744,0.34284842785184344,0.3703172856568222,0.40859909537769606,0.4464221712155207,0.4809076649425142,0.5184799002706912,0.5568375585212144,0.5951975371180691,0.6332802785289209,0.6680237548818528,0.7050832021606761,0.7434036933111312,0.77966134223224,0.81492796269125,0.8495911423738916,0.870129021071258,0.8552892651396733,0.8414415507597193,0.8349613186923865,0.8303758866660749,0.8434976857242285,0.860052550679743,0.860961454618949,0.8457973092465116,0.8230661249169173,0.7987226231567135,0.7747012924578813,0.7780160254561435,0.8074948189879072,0.8386504453921761,0.8687863849505646,0.8999405429022522,0.9298754829904301,0.9530154907587944,0.954909451777201,0.9412716572564161,0.9255622563415147,0.9125375891399488,0.895920248312829,0.8694593356085625,0.8362097967002249,0.7994417934288787,0.7650086575504569,0.7306205327512614,0.6988794591759924,0.6614497913800861,0.6269565825575987,0.589380446051627,0.5510223222107846,0.5126621668998705,0.4743114388631204,0.44017094019001385,0.44922607513865226,0.4862114054023356,0.5207586082310218,0.5581672297143532,0.5965237005186144,0.6345621373201422,0.669221236792368,0.706407904345981,0.7447596789720199,0.7823236247462384,0.8106860643158842,0.8116325144099128,0.8114831926313357,0.8053118879148848,0.7908242274772064,0.7811576366683641,0.7709891602057126,0.748643812109117,0.7360531805238129,0.7573735517198612,0.7899147667165984,0.8252182291673373,0.8588396046120823,0.8909892683643237,0.921231197657931,0.9500850030134991,0.9785287079174723,0.9997603746196351,0.9999999999999998,0.9839027507722666,0.9656287009337883,0.9545153931677275,0.9448142741463434,0.919186461568809,0.8859304778352208,0.8500020670442638,0.8120018778044382,0.7773181135358385,0.740164488613803,0.7018103795233641,0.6634502242124503,0.625090158350889,0.5873472827531068,0.5731667716548792,0.6019371692343103,0.6395790167207398,0.677937302902994,0.7161654616521194,0.7513877253873251,0.7877310082773343,0.8230351351520624,0.8567814825815476,0.8767646044666868,0.8711180920866386,0.8637383805031669,0.857984600522333,0.860029225521151,0.857179323646643,0.8633604920258171,0.8690430415004708,0.8570607565797994,0.8391353936564943,0.8285747659254634,0.8112778696480374,0.7945641517856008,0.8096769526172667,0.839876761294871,0.8692858709741005,0.8986438943351263,0.9290571499875149,0.9582268627599646,0.9827043057353482,0.9828417851211266,0.9683372114243087,0.9581034748914024,0.954745549265557,HB
0.2728758762721838,0.35779010994968463,0.45779851394753657,0.5592052101331958,0.6577356885127669,0.7531173126377683,0.8542560834717133,0.9153537837696458,0.8479567449848485,0.7438199816771122,0.6376553184251984,0.5372350318149682,0.4353946816889803,0.3271672513572833,0.24193860991442995,0.20113490936178025,0.16124122520909978,0.1761555518707607,0.1412000220202665,0.07386750923266383,0.013894978227519061,0.0,0.06569244342116232,0.15102046287559412,0.2229007382220226,0.2715404152150104,0.3528418818556073,0.44612222156567294,0.5410449354552206,0.6400773915558909,0.7310217213862996,0.8276961284015977,0.8543228841842775,0.7664738444117275,0.6629645895242234,0.5573328999042179,0.4507673324132305,0.343877066067685,0.2431039976203192,0.15675285802879546,0.08440079676970591,0.021130273746096995,0.009527728860088014,0.07375883785422488,0.15485857173807493,0.220354458653221,0.29040777452112365,0.3705689449198294,0.4649435042067186,0.5608438836535333,0.6554354838146642,0.7514283480551361,0.8432783033306163,0.9295009860402635,0.898234284969139,0.7959435326204009,0.6900202106542813,0.5900107254063903,0.4896277826356389,0.3842037598102527,0.27988639989281416,0.18858647477431167,0.11539061846829735,0.04980497521212757,0.01578018063609199,0.06654461268008915,0.15017683921477665,0.226082235846644,0.26335529298732496,0.33380757488897805,0.4342872695430765,0.53785438944197,0.6390645535725986,0.7286652930786391,0.8185867827902137,0.8482648163361751,0.7611042042561503,0.6572271045099699,0.5521731620873186,0.45528274251598166,0.3551573713674142,0.25224770519972795,0.16470555650302654,0.09379674224852985,0.029314712915015417,0.02174683731476612,0.09122161225522885,0.17274150317968617,0.23693089005563583,0.29180706779142185,0.3768814467914402,0.4771854019100187,0.5820560843060848,0.6821193590540958,0.773622539556296,0.8680845596070285,0.9095589741057791,0.8278880553175111,0.7216630835652921,0.6153849896943263,0.5091341540617139,0.4031567101927257,0.3001335522090244,0.2026290045075193,0.12294692365373794,0.05609490656170868,0.0043723548769381,0.02849709556582436,0.10873567628881864,0.1870271109963435,0.23701484432415787,0.3029008876052083,0.3935883488787283,0.4927753249810004,0.5951543047863067,0.6898800626991292,0.7772887711979511,0.8474055538182853,0.7938692988929225,0.691206224633672,0.5853082418874621,0.48186691252535974,0.3862068080668698,0.28587513508545126,0.19135640513674945,0.11517706900516933,0.0437307851460248,0.00649081025109044,0.055019296055808464,0.12604824967512096,0.2014534177443995,0.29512322333982655,0.4007999981955096,0.5059657979900306,0.61233187284132,0.7170898430917326,0.8137021172591524,0.899022065414583,0.8957738016248403,0.8079925671857365,0.7154094468945841,0.6231306208649953,0.5236758887823733,0.42468981959335916,0.33021364368828754,0.25904028848711935,0.20471844372186354,0.12533589284072022,0.04547543451311542,0.04110938058230207,0.10219860153959914,0.17248888944635088,0.25290862167411354,0.35319083283273545,0.46075650620325825,0.5663341414344499,0.6730664565865282,0.7800286972869684,0.8817625848582743,0.9602890468521655,0.9395547295339558,0.8483348473443725,0.754886135421646,0.6566609102078963,0.5541308559066925,0.45357452217439687,0.3573138551853482,0.2822449275580844,0.23010764027678288,0.15688252833561267,0.07449475328220212,0.044034845173603454,0.10070372405009054,0.17248992541405284,0.25795943820667955,0.35671881222370294,0.4610473315258653,0.5712409708752243,0.6769643651274767,0.7802252693493564,0.8727883188106517,0.9068366679586864,0.8332847463141856,0.7421180844939811,0.6512042925113158,0.5465300792004787,0.44529756050609437,0.3506617691973656,0.28571231152501186,0.25324950723497885,0.182636775835054,0.09757152364262489,0.0431078373439715,0.08324172612932423,0.15025160881058164,0.23080842496440435,0.3260865983616913,0.4288433527983696,0.5352826007466264,0.6463831426520213,0.7538589361114932,0.8592087658219693,0.9599890242466224,0.9999999999999999,0.9251231864957706,0.8284172576662824,0.7381138729160687,0.6379883939147776,0.5338457804791791,0.43554621106490987,0.34934071777308684,0.2702130637547927,0.20879926600444554,0.13432168200514438,0.05513310108933733,0.036742931761014064,0.09545252167162177,0.16811910416579234,0.25578861039716705,0.3544866796142029,0.45875775038075906,0.5652993607676272,0.6738011578711046,0.78029252263194,0.8781833151703272,0.9119505527465027,0.833417619050771,0.7377808786563639,0.64873597906178,0.5485395586516683,0.4441633089768492,0.3472165055662796,0.2749750477715135,0.22459711803355698,0.1476629954670291,0.06404552848650047,0.018378238590069707,0.06261648602057213,0.12698089309812177,0.21137246570927082,0.3104079549337865,0.4138808314762773,0.5201581938745744,0.6263129061136946,0.7259646987069482,0.831503159006238,0.9328413880838534,0.9820106348818151,0.911041292495005,0.8095047815137125,0.7145827324170227,0.6194519111763109,0.5189392249554036,0.4143388427056972,0.32357549594149104,HB
0.3948493799230308,0.4139377348587181,0.387392791576896,0.355984805357756,0.3207742952339251,0.31976394431745436,0.37908203776631644,0.37856448104486307,0.30222607248280475,0.21182457149629752,0.11591281265551012,0.026268591687213294,0.0,0.0781088977156128,0.17130635754380685,0.2680458036340174,0.364981435457021,0.45967024609952645,0.5532070018294596,0.6499794018680508,0.7447635465259913,0.8017740445122253,0.7423862112764431,0.6504112594860455,0.5702957705887995,0.5256861917013772,0.47925864136729,0.41243006344897415,0.3437922811023094,0.30780075145292163,0.349689440580466,0.40159787501329003,0.40003821934120276,0.39207711165832637,0.3558180714917324,0.27337429512126854,0.17888644423319977,0.09260017400626164,0.08601697627294869,0.17063740124033122,0.25744377314707545,0.3473715846279508,0.43073553413410803,0.5085972740458845,0.5905911822216982,0.6830932721839374,0.7775566288434891,0.810206993120374,0.7327490443902346,0.6405351129707714,0.5557027184547944,0.5043367137178373,0.46297963547644316,0.39892982127832544,0.33348129849013275,0.3087995502365378,0.3588796602718478,0.41006609434048424,0.4073355857836439,0.3980115170138835,0.35488786637639613,0.271227420029473,0.18012043335082195,0.08532437276759808,0.02990504198345001,0.0880484872865307,0.18310685377713765,0.27985235562777755,0.37324261253084123,0.46810519993711297,0.565050231501692,0.6618152711995101,0.7546905615907281,0.813511211386862,0.7553079928842553,0.6642632969660552,0.5782064784171045,0.5253069321672951,0.4870971901281952,0.4219783938231656,0.3539372615053714,0.3083550977344578,0.3425888450822462,0.39853593224714423,0.41411210857960856,0.405651416765314,0.3632993045573405,0.27968705499781443,0.1891173938595715,0.09686087603932392,0.022687958070661485,0.05768500757660444,0.1502882526155197,0.24719565623834927,0.3426114395461347,0.4355995366210317,0.5321830087386116,0.6287935258339526,0.7110121430187234,0.6943054548370756,0.610181212149412,0.5429673672575365,0.506931109686711,0.4492504678756424,0.3812863452592865,0.32457114190265834,0.33747514740883255,0.3920483993217402,0.40912315590578274,0.4023483005970533,0.3730587004667546,0.29228557217575357,0.20162319641371007,0.10953409816207016,0.02158273514508169,0.00019889017673968556,0.07851757015623961,0.17099155614835393,0.2669261360905496,0.36390355911329453,0.4608538877248666,0.5558165805480969,0.6491269261653593,0.7453953643114016,0.8097296665837118,0.7536784030211127,0.6633746308919627,0.5794006896786678,0.5238291377417245,0.4821652218702702,0.4200875958728476,0.35401187050753846,0.3174593635110292,0.34771592022438347,0.3431441833704043,0.3866143142593642,0.45252837340776486,0.5103918816264569,0.5499273318678327,0.6140006715456677,0.7024206642170298,0.797898021004639,0.8900353977037717,0.9725483147397213,0.9709530639774869,0.8859575805718646,0.7924774867569934,0.6964573643244282,0.6037316329704719,0.507685398152535,0.41074195873736397,0.323815764093042,0.33429219201249016,0.4067148482818621,0.43560902177180605,0.4386789076326697,0.4307333690489008,0.3794223534900071,0.3518437782716185,0.403813223451435,0.47112427451839,0.5286862652070398,0.5558352594843688,0.6132026922032404,0.6986205692775634,0.7931157798694478,0.8888701929717525,0.9702802744252875,0.96402249762074,0.8773244239196903,0.7885404955010745,0.700545997739027,0.6041805893422584,0.5073027789662844,0.41325331096531404,0.32113978000725363,0.2862418269194531,0.3601498739571738,0.4252899651481368,0.43430603710343085,0.4420670143559017,0.41338969392663183,0.35821103548359035,0.3551442855281154,0.41960999331378424,0.48636092453319424,0.5335684855466282,0.5693634906694075,0.6443940512631569,0.7338045339398763,0.8256093243578589,0.9206154780970838,0.9825891891523088,0.9335991148636494,0.8410352608736754,0.7542513012622195,0.6756192366502117,0.598305118284805,0.5172756127801633,0.4260004188911193,0.3333276057370247,0.31429350297241954,0.38867876722531214,0.4265191321384437,0.432086622131333,0.4358248100089248,0.388640577173335,0.33596309113830003,0.3616684875847994,0.42874279786626635,0.4899478926106974,0.5241603891843764,0.5791478432192821,0.6642790936917581,0.7557450660861541,0.8482855400444459,0.9407389286573852,0.9999999999999999,0.9459039719247736,0.8545820298781927,0.7587537892036856,0.6635761719404226,0.5704333886832312,0.47376768128384883,0.3788580197840661,0.3415362765680746,0.3994544815922101,0.41617591300138157,0.4264266298295468,0.41437317934335594,0.3598930380280013,0.3444473775501038,0.40578078800541706,0.47410502810435895,0.5294936475897719,0.5685165082516183,0.6393102984504851,0.7280239432365808,0.8199114122472769,0.9121845895615134,0.9857902411992548,0.9501176027633714,0.858427007983804,0.7652132826651675,0.6685119518758545,0.57226691207248,0.47953134078979953,0.38353432736770876,0.2882516051139864,0.24877434903600848,0.31962816776371594,0.3980937726731133,0.4254540765561966,0.43950354175363193,0.43399667301513545,HB
0.5217922065000495,0.5064486149879452,0.4930827029731639,0.5131252820023902,0.49389131199276015,0.40267064429894606,0.3100985459428831,0.20443762045872438,0.09962036303934885,0.03926288050625604,0.09703620568475602,0.20943646900559787,0.32596650917631464,0.44250102274818115,0.5570539775624643,0.6658998374646903,0.7807166158364502,0.8771145871890234,0.8643953316130322,0.7901909781220828,0.6951429068538988,0.5979722838512804,0.5173336011896663,0.45886623591969555,0.4112375100856829,0.3639294125838375,0.335791241478153,0.3765585359989738,0.44288818444834455,0.4924384721481385,0.4977475484762073,0.48203883131452785,0.49942575837532477,0.5240066461682276,0.4502849290551718,0.33866255501833487,0.23137844901863036,0.12808504443474056,0.07714356076093476,0.15497768946337365,0.2632327683802773,0.3774139258054292,0.4913670554268692,0.6005023177562523,0.7161561847070606,0.8257075608354745,0.874191925897656,0.8138187364318319,0.7335048700280882,0.6347772872482087,0.5410637628983477,0.4737135349920847,0.41987563373827563,0.3690304146485506,0.3240233609647887,0.34430916730005,0.41207744060327856,0.47347228658787,0.4990973209910081,0.47852889000066945,0.47790972841461454,0.501662628437668,0.4494522373414478,0.3480824712360002,0.24021260102977893,0.12591562801246425,0.02223557455907632,0.0,0.09036813126462473,0.20496627086464625,0.3210469386374357,0.43074300341716576,0.5438975730267719,0.65954274351515,0.7684999210615486,0.8721088303653395,0.8664384357616979,0.7902956071648806,0.7015477642652692,0.6067945608659808,0.5260841439197996,0.4620069521285408,0.4146515003120026,0.36576283281936517,0.32514164326367223,0.3488345792870422,0.41601609377858506,0.4799227837890052,0.511998694735839,0.504657475261669,0.4960374686906932,0.5202994650452668,0.490478131923926,0.3979755293136036,0.3041929198712858,0.19353781002278714,0.08178912363683355,0.010762229512780275,0.05687573911609811,0.15880885312156523,0.2745191141466774,0.38511004616022904,0.49721092413226775,0.6135489108393966,0.7252431384781011,0.8352184924189965,0.8996890475327874,0.840407285701517,0.757859186542853,0.6623986047082411,0.5681163691053182,0.490567512250059,0.44193266269596343,0.3949681910018026,0.35332411756401383,0.3701367952962016,0.43296190886812735,0.49235377412432046,0.516342474742373,0.49839690571631934,0.49648791724096464,0.5179479369364244,0.4744659491870562,0.3727579401667409,0.26659958580081455,0.15502206108710315,0.05872467735077613,0.06973752068961914,0.17377082273415323,0.2836582308681499,0.3994868685482005,0.5096159057957268,0.6222166748865048,0.7362485509872745,0.8425802854453717,0.9205676933744193,0.9802847590998249,0.9322858588208796,0.8263983133862465,0.7130575298231665,0.598984563531247,0.4899258950574563,0.37646298516059407,0.33496929222126104,0.42605202512218043,0.5257932239247356,0.5544619138481359,0.5290199664602415,0.5359947955285727,0.5470487268349535,0.5207997258513473,0.4628087609636524,0.3995934820552294,0.39417775270253896,0.4421624800840527,0.4875520919232428,0.5458319009574051,0.6342776451373779,0.7366169872504604,0.8272672662224472,0.9057072290279815,0.9806196992587344,0.9760124209606449,0.8884768719538401,0.7804090322764026,0.6676370029736174,0.5525905142384295,0.4438499240239935,0.33069919444347295,0.28466367223264877,0.3716508328799084,0.47710075033536126,0.5553929744330401,0.5513495574491729,0.5340904739688259,0.5471466081148313,0.5365011209478987,0.4906956763278869,0.42399606276525303,0.3673571889925753,0.38841250383565407,0.4377179241704088,0.48715102466521754,0.5518620884200827,0.6427643849457227,0.7444521680623752,0.8297265178818698,0.9100187642363076,0.9874746992619459,0.9792623653283443,0.9001793595383285,0.8126091603619257,0.7179458852832963,0.6042418402681238,0.49402329353565855,0.3816281626003959,0.28578972855863416,0.3253374212198543,0.4285415941343025,0.5212608498060227,0.539966391689082,0.5140981321079492,0.5224879387222192,0.536244870325159,0.5055767162964966,0.4488035742347489,0.3802801573809065,0.36318131135763054,0.4114368169850915,0.4625177230117641,0.5202149220937424,0.599672860651109,0.6937607757974897,0.7905916437342828,0.8675967942110092,0.949531347788112,1.0,0.9312180207416909,0.82419324569763,0.7096588116266374,0.6006253520942904,0.4864955284792061,0.37304995140295993,0.33843394715773023,0.4297136205354841,0.5302969819763381,0.5770519229937252,0.541563544148475,0.5190045808155632,0.5316508174083787,0.5228551236115533,0.47617886697942513,0.4123761869195759,0.38050191421064206,0.41516275379934253,0.4631933501016354,0.5152757622923279,0.5893907944246899,0.6837263551143784,0.778003631842787,0.8602154660763133,0.9407456743387295,0.9788136799053695,0.9017523801397958,0.7910436800212532,0.6813242859059521,0.5683559885693237,0.4523395040431939,0.3718236000968498,0.43025431652307233,0.5241279122652169,0.5546013478148675,0.529107774954779,0.5373952137537095,0.550973312504907,HB
0.4673967832864461,0.5212026280919813,0.5729942598150117,0.5884580058012514,0.587673690705506,0.6084074953800076,0.5505376703380607,0.4606356550782987,0.36930779404960895,0.27849953323888904,0.18650244547131029,0.10016504558127032,0.08461868263464628,0.16415580637896593,0.2574785379832217,0.35197503615021736,0.4451430114118167,0.5291736521822246,0.6079766534289992,0.6846659455353454,0.749926050933803,0.7299382051586942,0.6621783273419766,0.6153386493435191,0.565677881764266,0.5720532069742832,0.5706465870942881,0.57756378949116,0.610423284298389,0.5657686505008279,0.4774383571820467,0.3861691859389074,0.2947368526489999,0.20268286750718606,0.11690071125179152,0.10817852712890064,0.19077155586983163,0.28236138850294207,0.37672697092873747,0.47041857327022935,0.561217678329665,0.6550355538436157,0.7490245666862148,0.810573017917771,0.7685443612959253,0.6961837243053894,0.6433634037404778,0.5939910793966303,0.5839233219875553,0.5811470029029222,0.5777484782136522,0.6138995564464631,0.5695011303268294,0.4811595460089621,0.38863494117275715,0.29780654637831144,0.20387531525544594,0.11527405355412568,0.10588938840309187,0.18691570414749892,0.2807601494805147,0.37499939492668194,0.466185023361715,0.5590830760632577,0.6535705932871028,0.7453349603379256,0.7739167984216468,0.7031642673046876,0.6338276327851406,0.5821379368262392,0.5756397976370031,0.6137064409944804,0.6219821992622137,0.6486386604151542,0.6786796513299787,0.6164332130107131,0.5254029776067131,0.4310456102645535,0.3374788221698383,0.24683762436545825,0.16613463126921935,0.17961737144603807,0.26866266114756837,0.3622809610256928,0.45308737608480837,0.5469543066500921,0.641465753953105,0.7359112157209351,0.825469869511757,0.8509578081486848,0.7797046780540815,0.7179416522687248,0.6603109461686056,0.6275303236049903,0.6010971372485052,0.5605293755831506,0.5209546382869703,0.5280182859128395,0.47835692197296326,0.3858154268367074,0.29474778695231646,0.20244499463582566,0.11173975858448632,0.023458286226605618,0.0,0.0784934987955973,0.17000946502420866,0.2623354134194374,0.3567923165241976,0.4510006715753561,0.5420940747132255,0.6285448045923103,0.6339139098462685,0.5765643238681522,0.5203886602180072,0.4940058832732493,0.5148495781356721,0.5259372513705434,0.555564055861187,0.5431454555304456,0.4588757879730319,0.3671290464594848,0.27636127559310036,0.18441637535884314,0.09358340209484417,0.021609168492804143,0.05004184164047326,0.13804212607241134,0.22164468673923626,0.313097758577005,0.4075835170542789,0.5015466554177144,0.5923766179853862,0.679804594538886,0.6874689890943797,0.6259872641592537,0.5711267507765536,0.5235652382528053,0.552705284728358,0.5719204087703396,0.5745700747993252,0.6255469145141053,0.6862584317302769,0.7676868314439593,0.8531011737642424,0.8907276148703194,0.822391496342235,0.7287998401309137,0.6357037694579912,0.5446564296971568,0.45048408379307864,0.35618692093252075,0.28467240711006286,0.32777304513759037,0.41728512424337955,0.5090133589251489,0.5840624688199936,0.5803542003813051,0.5518453718024241,0.5439613142558779,0.5282062873520379,0.5432981250410021,0.5983161813301876,0.6667617408842388,0.7504237701664198,0.8135488357761296,0.7699757033008865,0.6783207076370423,0.5853713927936306,0.4942391230560009,0.4000211308761065,0.30731631903435946,0.27080238852317223,0.34513997193773466,0.4356270016694192,0.5209026113352666,0.5529856711225383,0.5620991853354231,0.6095715772377688,0.6445699358245809,0.6645005418303382,0.7159307394345018,0.7718575491147304,0.8490407987631747,0.9315060207581332,0.9999999999999998,0.9700167632808561,0.8815013601728896,0.7983015574741024,0.7153818546046122,0.6223265415451791,0.5472437202790661,0.581822412273066,0.6694796737655857,0.7293043015865965,0.6988206732183899,0.6538863437043205,0.6464566110525021,0.6141898053822454,0.6066534696968284,0.6517484092927162,0.7083052701542734,0.7926081410655188,0.8814401956898124,0.9264505397628215,0.863093209982754,0.771425528061153,0.6770689516102875,0.5854284994691792,0.5235259763483617,0.5738925521424028,0.6413985316325188,0.6215709662246816,0.6017956393698296,0.6126495214692289,0.6042493013141939,0.6426037140710743,0.6904561734050627,0.7632269615961198,0.8508444975680998,0.9243279821213801,0.904109175257318,0.8159493937483047,0.7216581708294505,0.6299395545402007,0.5379237068677072,0.4677485121464156,0.5136087071565021,0.6020757229723857,0.6501022730164603,0.614075558569086,0.5981527461936418,0.6078690671198983,0.5888044926693783,0.6283664007965075,0.6784961531399978,0.7396515857402592,0.8239786463562175,0.9063833321861421,0.9211466269510911,0.8424840563975124,0.7499806625483878,0.6555051528080549,0.5609910152750117,0.46652026870149105,0.3827541615275097,0.39906888156620074,0.4874435258398762,0.5771416712956159,0.64177046665413,0.6256246949110089,0.6172328753161453,0.6120261036442429,0.5843758985959966,0.6183703740145641,HB
0.0,0.06377214700349909,0.11707362821981326,0.14493127946086926,0.21397259506073207,0.3102259948065571,0.41096445323537023,0.5086681242160429,0.6089285261935118,0.6871877747781128,0.6402653189218326,0.5408054928089197,0.44431702886066327,0.34966958478399834,0.2650476238661441,0.21163011982841606,0.18925616508794119,0.15298274857674699,0.131976387027688,0.16346974469931852,0.19355677309395225,0.1931625384134421,0.17571307557370885,0.12568587766539774,0.10151661919253563,0.14692759455137505,0.19746708389705558,0.19166869739005854,0.11332724076106415,0.06843852643637405,0.1341529937595214,0.22921881406718114,0.3290341863805295,0.4323904430774652,0.5343119187173488,0.5812128624370598,0.5073464530406446,0.40996287343124793,0.3172668562252827,0.2407355728405285,0.19820527327413728,0.174788358708857,0.13646634949494252,0.13436907534296494,0.17466950550696314,0.196104669205017,0.187470336357902,0.14770385739531733,0.09721741712241161,0.1210412717148297,0.1751662968865222,0.1987876091977412,0.13821693480938424,0.06941008449963437,0.11377027642370297,0.20721477995750703,0.3047834396918574,0.4042022088878756,0.5052165326044433,0.601309672420173,0.6514768142471528,0.5764261303954987,0.4734859576685069,0.3726635629886914,0.283785347822215,0.21504562392431947,0.18028210429907432,0.15463070905150889,0.11431379862787305,0.1255804484249441,0.1794178143983156,0.21877200023036547,0.21145039449269798,0.1866476322360795,0.1392634402072932,0.09560179617048337,0.13261693494916016,0.19121914802761997,0.22852998731915442,0.18472979975315473,0.10254344567340912,0.10851006654202244,0.19710162061532266,0.29390441764697806,0.39055407077309967,0.49257081875582265,0.5925478390678915,0.6775864765017867,0.6549991629435061,0.5601875059904666,0.4615242393471837,0.366464147758635,0.2812465438137981,0.22392988439665062,0.1964566069768241,0.15618438690648162,0.12072973013702493,0.14034154639061658,0.18272159241658592,0.20972302236118234,0.20339321051594794,0.15624850023765902,0.10958139422435242,0.14045473930762675,0.19183938425844738,0.20213080256082816,0.13226905739258887,0.05637328583771817,0.08272772640588077,0.17479348854737475,0.27004593471323335,0.35656060877960205,0.4509442924526452,0.5458964396851445,0.5413134889793689,0.44697424531966035,0.3518640093376215,0.26405397735156844,0.2173277859126148,0.2622746422011131,0.3467887426649794,0.44108711988285654,0.5401144675022336,0.6388608067293202,0.7381031290011963,0.8392589188139095,0.9348195882256145,0.9890640122523187,0.9250399959128774,0.8277160428402541,0.7291394931796149,0.6312093855479131,0.5311136288619787,0.42957561963926083,0.3326508062555904,0.242067243155196,0.23047755786018764,0.23049942523598665,0.19118171308730547,0.15652964704526706,0.19785926600693937,0.2315019272264287,0.23539959694584645,0.2117276567415054,0.17103130393579447,0.15779860693548153,0.19895705002212227,0.23178050972356923,0.26595715428023636,0.3398926213141287,0.43898136586307146,0.5360487349522636,0.6361089691286008,0.7280911869413185,0.8177253637533171,0.9136185924867073,0.9994987720938404,0.9841884343422582,0.8923201571536894,0.7967597510305775,0.7116924214135367,0.617465115868284,0.514748423241117,0.4113254569668099,0.3088981921560101,0.24372617160808074,0.26002872171612923,0.23876081760123724,0.18433648484571385,0.13656297835304154,0.1711685364516633,0.21337839456613694,0.23685608536894032,0.2522696939958182,0.2268494427110237,0.17383287750561505,0.1539535179304954,0.1898826741043722,0.22006914204062045,0.2714298605553285,0.3547889024113773,0.4509924670806573,0.5477572178391528,0.6490234384648017,0.7467069816213134,0.8464686619250723,0.9397900400873538,0.9638523313847651,0.8822797690903394,0.7825217837959269,0.6856119888751846,0.5865147358177045,0.4889305704322213,0.38760190323261523,0.29143644891382814,0.22729857291625266,0.2308220851136482,0.20209580347770184,0.1505978219670845,0.14771675181119415,0.19829998289002448,0.2165949256170021,0.21874363146928455,0.1927808046685473,0.15718982924855074,0.18021415454080425,0.21212204887034014,0.23812206059805074,0.3056150242733604,0.39590129558573994,0.4915391219129397,0.5924716043785585,0.6882160642832871,0.7782440816045502,0.8725305055645176,0.9650926538516189,0.9805221462775702,0.8916040184331901,0.7944843522466005,0.6953107596294825,0.5981484302679276,0.4959916277359002,0.39875568741995293,0.29896434228552127,0.22764581879341783,0.2388388644141608,0.2252433222054191,0.1778939347060149,0.14490725335958188,0.1873541074098819,0.21314971708239883,0.22504914174944846,0.21515836868955662,0.17745350328693998,0.16994347813626565,0.20657500019653607,0.22858490528965247,0.27423907812387593,0.3618993670969761,0.45836507473726407,0.5576520430332654,0.6556360528244378,0.7581500760479414,0.8553708609704507,0.952490736938933,1.0,0.9344642847699616,0.8383576511966893,0.7407541618917484,0.6407667721165715,0.537403636379312,0.4340137126869468,0.33340185247797716,0.24219438748676403,0.2292518634112113,HB
0.3941663154148184,0.4085988244613642,0.37486410706488493,0.2984847142284436,0.2157692249663622,0.13126974599065344,0.11507147687857666,0.18664167499855522,0.26337263053662185,0.3312487680644546,0.4052532297908934,0.49179532851784546,0.5846027805393165,0.6783021020428245,0.7419224343984111,0.6869841848236019,0.6041786455105017,0.5237102401290644,0.4552065034064384,0.4134030236194818,0.3758642584629287,0.3441575919844516,0.31424298180402144,0.33423994082923414,0.3816493798307584,0.39478938051251655,0.3821797745467651,0.4044253999985076,0.41924320053277564,0.40801465569667805,0.33838865200231394,0.2504484502312615,0.16150010290427252,0.0936585962850407,0.12989301029575528,0.21622202537304658,0.30953223929105966,0.3997679258532304,0.4897365395800487,0.5836239842922931,0.6741379748729136,0.7075983614354312,0.6377473339412308,0.5531868233752474,0.48130146471084656,0.43064325752242294,0.3907923240658927,0.35614335943182784,0.32329077341108314,0.31899277866411124,0.36105220410173844,0.3809301007927882,0.3528423159409385,0.36786333501978297,0.39343338121246096,0.39603091493824405,0.3348442787409297,0.2458541831355986,0.15622586085246748,0.0629454225057331,0.0,0.04554612008915937,0.13369098377972366,0.22698223435333464,0.315455494084406,0.4075137081889805,0.5015367744232985,0.5954469706255806,0.6793336002299869,0.6758606289967918,0.594348251053196,0.5115076965877835,0.44430159597950303,0.4010735646643072,0.35995607119421014,0.31859327819531724,0.28788303234587687,0.30403543812103007,0.35551325773484266,0.3867420440958177,0.3737953387766074,0.3890532708885174,0.4010918637424764,0.3958028058108912,0.33775984487682564,0.25162842287749065,0.16254007460227682,0.11339417762819404,0.17076522884377143,0.2623532316378808,0.3535882189648448,0.4426407575899306,0.5363021427349927,0.6192040342315538,0.6069043566296132,0.5304363712443362,0.4586443830693573,0.4154677745313772,0.3867252487212499,0.35916243521404134,0.3338471378995823,0.3537810528676185,0.39759349382037634,0.3975809571436689,0.3797880784824327,0.40058370123412324,0.41794456066079244,0.3970246797914253,0.32153167256215387,0.22975727169617077,0.14082729945839578,0.05156114120802846,0.002778328044853229,0.0620596896330281,0.15343031130220253,0.24158801125689144,0.33444299532053157,0.4261421628616643,0.5080330492825479,0.5841431953054023,0.6560249939777555,0.6324875431823028,0.5503997886677764,0.47409679821897954,0.41798327071167274,0.38769090844217324,0.36116408245282183,0.3307269265368503,0.3279176960072029,0.3717685374261829,0.41735565963945864,0.40009256093417334,0.39009919946665306,0.4164704902798172,0.4486155672203972,0.47541215346201693,0.5293516884458355,0.6098849550076754,0.694726781180406,0.7814890858279852,0.8689599444572381,0.9294023412816502,0.8833056098407751,0.7964815101866499,0.703457058831315,0.6094202481646095,0.5153802290184218,0.42134020987223597,0.3277307144211853,0.26710767049723294,0.32579065939627017,0.4092390850601636,0.4586132706858318,0.4732181617193111,0.45841179267840804,0.43749631114228615,0.4580356378250251,0.4675503270712117,0.4309982597569325,0.3983162619601409,0.4132463112985837,0.44978928840574117,0.4783315985073736,0.5261851454392367,0.6001362161363456,0.6874644104366893,0.776311894417557,0.8672445915868302,0.9488078788663522,0.9567332689324582,0.8787849005660954,0.7862238915706968,0.6978824537262053,0.6055895084168587,0.51162318752279,0.4280065253933706,0.4295353718612088,0.457265584440785,0.4575768472070191,0.4495676774562717,0.4369465300153238,0.44397395627649405,0.40948096873754924,0.3609019686737752,0.3616558445864465,0.3996157369672285,0.4424651300108914,0.48046963677673526,0.5368380984313296,0.6179190590775928,0.7052061599689669,0.7972204494927987,0.8815339387764342,0.908844982829326,0.8377158549605846,0.7485192099085697,0.6580260708793263,0.5640721212155685,0.4706676655898522,0.3851994876828898,0.3645343045585251,0.43174053100414767,0.46079357841392155,0.4488831265185852,0.42532780315128915,0.4320555985298936,0.4480789526983876,0.41127783902301707,0.37881350939237,0.40178583983512717,0.44073115374066407,0.4793438112139644,0.5218551775188486,0.5927335190894544,0.6787169984989742,0.7634855086598628,0.8504244670815274,0.9364765962710825,0.9844601019098119,0.9276843884071636,0.8357998068488169,0.7457024384328411,0.6556059388632488,0.5616841978365953,0.46764649518949086,0.376886750615406,0.3585431096220647,0.43127941975023554,0.47133397732114923,0.4700097650322853,0.450869528076011,0.4510973617996731,0.45545932502992825,0.4134031273848894,0.3768204737211446,0.39641638256733847,0.43412815243712466,0.4698900172976589,0.5151303428469066,0.5900525259972756,0.6719721851782391,0.7606696829178999,0.849556972729922,0.9387816496271125,0.9999999999999999,0.9553073409110423,0.8657446523649553,0.7747569676677765,0.6855422171531943,0.591802009765063,0.500751108587329,0.43012767017543696,0.44817296480057245,0.46328660238157593,0.44935046787507205,HB
0.36636031120044843,0.4241198944272656,0.4770911958579561,0.513589617338524,0.5658814522673442,0.6142703321752992,0.6262503967494816,0.5890066676892437,0.5604464359980682,0.5856656393270007,0.6269318089616368,0.632977819119871,0.5964876289231252,0.5122721809904985,0.42373905796984823,0.33298877572284147,0.24453608254990755,0.15380509902405748,0.06753546273769373,0.022208133792134377,0.08431634089991158,0.17134833113112136,0.2642014791248325,0.35855023883662784,0.45048968939869505,0.5386042765782927,0.6324484479985605,0.7260142646145776,0.7748813856589604,0.7080419669217136,0.6388044458895253,0.5944010625191943,0.5584283992884532,0.5135211365831781,0.4771416775935663,0.4851096230798556,0.5235645276966371,0.5782667853532414,0.593045517548194,0.5570164768542637,0.5330271853130765,0.565697893439988,0.6117672112915628,0.6325557006495842,0.5896660859477675,0.5060205101100138,0.41721848578005705,0.3290693905603176,0.2411156997094389,0.14996823635188894,0.0631581124377788,0.016636110457411757,0.0793313712510687,0.16202543168714512,0.24328628733517432,0.33455128304873927,0.42887514818419314,0.5210753308419115,0.6090187333133424,0.7026034893939203,0.7744545871358198,0.7323763502894646,0.6569002226123352,0.5998339758222019,0.5636996528170496,0.5237172557167854,0.4879972060096601,0.49402098679564765,0.5320969031343833,0.5854791273050318,0.6293214713195695,0.6198692410610364,0.574104446981505,0.5657088909725184,0.6042980777978976,0.6345780782952856,0.6094197115232275,0.5281357444857354,0.44148649564250275,0.3528082425138671,0.26240269310970665,0.17329782553509376,0.080604923517685,0.0013126746198589556,0.0,0.08430148705034768,0.17254303910422408,0.2642219208924691,0.35856104496286345,0.45109747877310913,0.5388763702993814,0.6323437688664576,0.7086900749349209,0.6808683769717662,0.6259083824177948,0.5877691932954295,0.5475692920378673,0.5114835069318561,0.5180095800771768,0.5514807473689293,0.6014355684994067,0.6362539404653332,0.6134949474870944,0.5800487031674814,0.5939899102795975,0.6368886451706267,0.6605638093063356,0.6212044903006358,0.5406748518175913,0.45380417461294564,0.3627493436508079,0.27474468713401745,0.1835028168712406,0.09545502823338292,0.015881627009092347,0.03049821854609447,0.1146188312561992,0.20867961148090874,0.30268596627358446,0.3911895354469267,0.48259261148368526,0.5769324919133353,0.6711253072959461,0.7424412226482903,0.7058233164079645,0.6455144525732383,0.6056332213565797,0.565996242432467,0.521077116235445,0.4967416174549276,0.5181356290620435,0.5688758599055216,0.6181836924468743,0.6127979448981627,0.5777710399691741,0.5890204125955446,0.630657513613006,0.6548801685388493,0.6733733163093399,0.6876808441617314,0.6629983683484036,0.6205043932094328,0.6181280842824429,0.6513063732092158,0.6488994224050545,0.6035432771801962,0.5511120197366491,0.5251482629391394,0.5585151374391585,0.6020308609257471,0.6380104096323237,0.6829135200211366,0.7567294247082633,0.841082022428932,0.9284934843101106,0.9999999999999999,0.9807924790128636,0.893433137803831,0.8035397775001191,0.7137357360834548,0.6195381731408233,0.5370752687260317,0.5555535967224526,0.6335537375951249,0.683949772746505,0.6831304902400087,0.6465110769957428,0.6126348041134039,0.6358279735388547,0.6659103442695523,0.6486050564934643,0.5986565884533602,0.5549674521835662,0.5443953651664298,0.5784841576222143,0.6168102743012677,0.6575138873922536,0.7213278663993622,0.7929785558343764,0.8733965825860605,0.9543270596982302,0.9660167783403187,0.8910663887413987,0.8168185983421595,0.7393059937219143,0.6482562764039105,0.5605996891404706,0.47009478919739667,0.44222323004598574,0.5165345116186394,0.5998030952791079,0.6604600224367686,0.6648051960564761,0.6356306527127701,0.6000691733002189,0.6207899227831492,0.6593543603742372,0.6587022979423903,0.6182468279416088,0.5659015002827626,0.5241542095759429,0.5277737622133066,0.5672827615838038,0.6053525036034969,0.6483997446301354,0.7227527419585612,0.8063771458937453,0.8928577562107297,0.9716472286278351,0.9726689948469692,0.892630822706001,0.8025883882167867,0.7083542075180197,0.6169482130903404,0.5294991214707799,0.4853973546765554,0.5551349005954366,0.6325539207442147,0.6711892424912608,0.6599477267783268,0.6225065989139024,0.5808868130727362,0.5891581651176804,0.6247350943608722,0.6309174105246728,0.5857110036673444,0.5329933173730951,0.5082818703134019,0.5360553272821166,0.5805924941657991,0.6172849134874095,0.6638117637175637,0.7353943435625311,0.8196139408892739,0.9060508262492116,0.9741032802213224,0.9392218846173602,0.8530621582615802,0.7619379700498207,0.6678614519237,0.5788872086191234,0.4933672331963984,0.48632824412814724,0.5643945877076783,0.6347023907310533,0.6640406879079565,0.6670415752727946,0.6262697612955027,0.605240900382327,0.6390368901707167,0.658584772735982,0.6302415152122155,0.5795515430556092,0.5416455258513254,0.5589571452238625,HB
0.0,0.06445842630110676,0.12988949353891832,0.11101964259288355,0.12052841397025893,0.12483042353414886,0.08320920090451778,0.03625421277387053,0.01912721459259381,0.10096216045271977,0.17294901077477687,0.21562381399780173,0.2019885819143814,0.21367689683996272,0.21001292195485433,0.15733735216440103,0.09359019484065834,0.09699925606119408,0.17386880678594752,0.2697057921903121,0.3692241350309051,0.4739947284042709,0.5741554554525465,0.6750002677620106,0.7706845411156618,0.8263082368611219,0.7658652222840754,0.6682005488807619,0.5754979677087042,0.4960808535814798,0.40605670293642193,0.320832445704208,0.27220042794612365,0.2658549840397906,0.25336961177928297,0.19757631809664256,0.13861590903769794,0.12894964092861305,0.1848787700258323,0.24689449689804843,0.307308664867997,0.31278241711695953,0.28041693513740706,0.22605802564098187,0.1463242681401491,0.14874775441379517,0.20917805244387244,0.30365923519825166,0.40316915435463274,0.5081288103718995,0.6079052500530109,0.7085046591023669,0.8044974332908326,0.8263489488187767,0.7448298158615212,0.6486714597529826,0.5495242175956547,0.4491949425349109,0.3589588519766309,0.28931423969227876,0.26737247209231274,0.27781207965518573,0.26164668211619335,0.19574862266271142,0.13770316895008783,0.1473180564362886,0.20910176553897086,0.25982856217845285,0.28085204894460913,0.27895705660094294,0.24809088535161905,0.2172250889672116,0.22169928864485144,0.23706122274359664,0.19502412222068588,0.12445607884370435,0.1143107778859287,0.1832797077227677,0.2757111594181121,0.37598644787778834,0.47620729595324063,0.5817574690384122,0.6780884055269647,0.7665890926852841,0.8225845095506807,0.7593238104019093,0.6651771671958153,0.5685538879664711,0.47211618551161294,0.37991455626412574,0.29615990069236564,0.2725870473947487,0.29210890704981063,0.3147117490299858,0.29306274023110723,0.2392509788779722,0.2273362954402025,0.2729369159095716,0.2940869842131353,0.2715497524591932,0.2746534235332878,0.28203632289618885,0.24470970698177652,0.1796627733727152,0.17800399598459982,0.25167264993482696,0.3490946838810838,0.4556609543149208,0.5444307490529039,0.6379833657654514,0.7365294913110265,0.8336141138849511,0.8835069437484315,0.8145620654753389,0.7174171397774272,0.6207759183098722,0.5291671100232556,0.44449597616688186,0.35862459589947493,0.301678649038122,0.27914867411315214,0.25782819098050425,0.22229370632490486,0.1593241737716824,0.1118140966372747,0.1365677116693209,0.19613238745799233,0.23334221318810888,0.21788397353015676,0.23367897738622267,0.2654297902920777,0.2600671204149787,0.2142875489849223,0.1612707625237384,0.18710883941833978,0.2515258076528357,0.29130754544682347,0.3087585090966747,0.3318307337950288,0.39185785500015635,0.4794374492083193,0.5583657931800179,0.647347542009181,0.7490354361944047,0.8498610519973471,0.9392322413707475,1.0,0.9585122947522811,0.8643932361131759,0.7577460055563465,0.6578389927270023,0.5568762872152195,0.4545862478088085,0.3554523923081616,0.26377077277063843,0.222374939718055,0.2795169154463004,0.3134427513758262,0.3147620357816141,0.3064512315728476,0.3271680703274582,0.3200461113617794,0.2742621477410567,0.27197028159365577,0.32554575562610144,0.35084211649621944,0.3344223644234203,0.3125872993913563,0.33265594992586833,0.4156946186469517,0.5166954285615013,0.6170550425702692,0.7130234568785179,0.8062311766576338,0.8943154316461186,0.9383763436648755,0.871892475440402,0.7756858878884807,0.6777753367050972,0.5775651757812157,0.47700073075909755,0.37316425584378665,0.2747020648876608,0.187168733653446,0.17402325035370314,0.2416748018528898,0.26925572407333975,0.26033127517784016,0.2608347350938929,0.2932955734572338,0.3157232061462345,0.3140236967518426,0.2938345968003142,0.24573680393089803,0.1884808704137797,0.20386389729018717,0.2718088807486634,0.3140500074881991,0.30562295730558464,0.3058641870050196,0.3660685629538398,0.45456251045332996,0.5471292573928057,0.633537459927286,0.7199903065900792,0.8180289769861222,0.9107111875257798,0.9623044040937598,0.9110258159841265,0.8166019979770844,0.717448242156931,0.6134477254987676,0.5051712656945697,0.40414465289344603,0.3012852548886773,0.22452475971207675,0.2396644262398997,0.3011804745376583,0.33328459145746225,0.36096162495045414,0.3271988446947376,0.264864557739815,0.2041038098601704,0.17547284900243243,0.2275960445018943,0.28267884622376327,0.2988012469408736,0.29711159809681686,0.3378358876625773,0.422394124252385,0.5146520879775274,0.61066864689667,0.7073803682422994,0.8008731445353168,0.8910775679352865,0.9496823397663805,0.8994611003769069,0.8048101573785966,0.7045941023678965,0.6050171057220721,0.5054860142129631,0.40130828997903967,0.3012279343100681,0.200984387201125,0.13724468088221098,0.18224984255935284,0.23492880713372144,0.2464434707245391,0.24424434287228358,0.2541720253807844,0.24337742505846838,0.20222302402479353,0.18513125182557055,0.23629780828441316,0.2767390222006787,HB
0.7616637477452382,0.761802233826854,0.7818960870664875,0.8288370008120054,0.8383571155432961,0.7676479998955625,0.6798429762206792,0.5887037017633416,0.5005360052539771,0.4090492713718911,0.3192683047511388,0.22966485518339458,0.13896894444161628,0.05995303008988678,0.06911294423720776,0.153876053624807,0.24318922343444632,0.3362697521541403,0.42584167891948316,0.5156606939500266,0.6061934485645655,0.6934154365172014,0.7768323734131355,0.8248059542576571,0.8048015567926345,0.7714394408199805,0.7463171665902122,0.7725011956029317,0.8198823633410008,0.8343123451640773,0.832698648920865,0.8403404427198016,0.87935181713235,0.901836377257045,0.8556023973174944,0.768403393259927,0.6780906705777581,0.5899832818557098,0.4993174730031615,0.41139253088294564,0.31913548460810054,0.22711086386610574,0.1391876199295327,0.057059962108166384,0.06611718519562632,0.15365845742604306,0.24670656992096668,0.33536856512707286,0.4262512744880304,0.5180782208476145,0.6061069631923064,0.6969311886806278,0.780478149324322,0.829604359284932,0.8058742090706106,0.7730361127932941,0.7445797719444658,0.7570690426590005,0.8010605596608218,0.8069568490526187,0.7836446542359328,0.7688765022707349,0.7942169961739851,0.8102174017074402,0.7539811118143833,0.6656554861600892,0.5756247627297033,0.48632651291563106,0.39650329269111745,0.31148676750235144,0.23757048911117779,0.16252118022985734,0.08110773109802377,0.0,0.003891255932139681,0.08980797738768992,0.18314968860113284,0.27569773206653464,0.36367111286188053,0.4553456551533572,0.5437474462112708,0.6328447875649852,0.7157518024536711,0.7689235194120219,0.7536274702805834,0.7231525189035484,0.7115830610578004,0.7447552083621569,0.7925409354534629,0.8144314194477029,0.8152181572036927,0.807985707490974,0.8421191255697795,0.8666933011792568,0.8273934079016991,0.74032039983178,0.6511816208728911,0.5610744626434132,0.4703090445556542,0.38160733486519044,0.28903152635220347,0.2007903695868754,0.10969521080908778,0.03262648846855848,0.04585031797606959,0.13153875186245495,0.22484221601211446,0.31821624417384115,0.4115593808250794,0.5025716500867623,0.591022668239076,0.6802349907233138,0.7645428733492996,0.8216241736567942,0.8101334496833035,0.7737567331287889,0.7421775563018218,0.7548427431140734,0.8015408334986289,0.8161320177538256,0.8049438871427397,0.8024529756859502,0.8398906104914956,0.856685818659183,0.798037152118868,0.7080056130558432,0.6198725663859777,0.5301053057517304,0.4409460007001585,0.3490433774099005,0.2610751504742678,0.16858129646207481,0.07817936631190564,0.015664625744273963,0.05884398202112723,0.14766488199126165,0.23660553285616787,0.32974763138657887,0.4231215804366058,0.5164169876160667,0.6065185669893747,0.6930163145955213,0.7183846988600493,0.6442775657502209,0.5532667101572932,0.48136937622489046,0.5207340057722891,0.6078740158930418,0.6987051827102548,0.787115024363576,0.8779803729637197,0.959109456017422,0.9678797418823235,0.9037112471832629,0.8621923318039355,0.8250087272068474,0.8287368808541236,0.8383870922835741,0.8233246771967191,0.7768938103174219,0.7687832872637324,0.8041521025819829,0.839089902653088,0.8531705320715954,0.8057967649572348,0.720543053426125,0.6324207107828241,0.5438205983886046,0.45341745116126503,0.3748480391404912,0.4047952559653732,0.49399397570319253,0.5823441624399313,0.6728486687525204,0.7612915538160907,0.850095373686409,0.9368622232723778,0.9775351180704637,0.9216019479816895,0.8749022096165862,0.8386056747476434,0.8348093163738541,0.8384155196917469,0.8205202576387087,0.7747115759165608,0.7382543974988938,0.7518425322222453,0.783743042742989,0.79337937977988,0.7445843463489654,0.6608377244219914,0.5708458264424647,0.48171788003390154,0.39877876532952733,0.4155260550448611,0.5039363146508256,0.5919302725765432,0.6835380305648016,0.7713828379576584,0.8598012676310531,0.9236178981159848,0.8886078929908312,0.831762253432806,0.8006777228915167,0.797473274802291,0.8225720165717483,0.8354398273504295,0.8115485175851425,0.7717772896932873,0.7849537466240069,0.8170958668776471,0.8508377514458323,0.8425802551662969,0.773078709144899,0.6823799543943023,0.5939274193140944,0.5028750536762849,0.4261407710996385,0.4589098045761924,0.5452527924645949,0.6350973805402913,0.724133971131121,0.8153644376258979,0.9033495785348251,0.9866169344854576,1.0,0.9341538063698176,0.8970452085044007,0.8622642267801528,0.8595071854105452,0.8551788590957097,0.8310030253294567,0.7823163589312843,0.7770170542463344,0.8098403989626926,0.8427791465975674,0.8547891795547706,0.8106610492632738,0.730613583085614,0.640056602172379,0.5550393935691751,0.47285037803227964,0.42202772827709684,0.4863532280986585,0.5763485131702453,0.6651823182309549,0.7536134341033047,0.8429015604966024,0.9226445392572149,0.9735642121698829,0.9261493254039856,0.8664127972132849,0.8215520764151287,0.7867930624390433,0.7846874465267815,HB
0.22084519244759504,0.25813017603396193,0.24125198664338388,0.30279746387992745,0.4052805563730447,0.513447590610966,0.614264126349744,0.6113555312341444,0.5144444234019553,0.4138513793996669,0.3246883243138191,0.25898950336725635,0.19789741790588955,0.11713528098915249,0.04887016852948478,0.062497538922324125,0.13952400680328803,0.209280652859959,0.22154272094842764,0.2512036855718215,0.25468548381565526,0.1915472668803705,0.23327158171789686,0.3388854955501278,0.44458845891384635,0.5500828775072416,0.6570675201806694,0.7006857667780478,0.6172553560782609,0.5141043022655994,0.4135966088520512,0.322605324624638,0.26057680525044813,0.19614291376638116,0.11500093610910034,0.03951456066133252,0.044072872910274286,0.12531944483987612,0.20296437688413416,0.24149513264083933,0.25504719836406753,0.2709843097319006,0.20594448020297895,0.19913844554834126,0.29362396441183536,0.4009606596212326,0.5050559516265402,0.6122972150750364,0.6696478912132352,0.5953786484840836,0.4953033753182555,0.4046284296652244,0.3199804041803359,0.25711508144399253,0.18903687579993644,0.10468987305870636,0.02264251684440166,0.0,0.07281232523783487,0.1590310857446836,0.2156460973921016,0.23516285076777776,0.2707754081838326,0.25363533628864,0.23162664048091453,0.3171027919063326,0.42109089510615016,0.529554778979053,0.6222218225409305,0.5920611140979183,0.4923763621685574,0.3949103508083859,0.3093983490528208,0.2473164230570991,0.18080411843624733,0.10152814166572544,0.041685295929683175,0.078111099311865,0.161644430153285,0.20847052886082873,0.2160839164359648,0.2546374592294808,0.24702218144518706,0.2513708156587061,0.34549983339888357,0.45422158634974397,0.5632339739087514,0.665950059689317,0.672959782615138,0.5781321979151889,0.4756865650103893,0.3776490663868587,0.2966327102985017,0.23871134411723516,0.16761993615491078,0.08788637592968462,0.047143701403654426,0.1020674062360587,0.18376526940182314,0.21095632561232114,0.21570959510830645,0.26573587138428467,0.2578568981715884,0.29957945365710026,0.39855023066264483,0.5049070222216762,0.6097895146870921,0.6330318515146388,0.5419483700739801,0.43741183415384455,0.3433377679035622,0.2761711602457887,0.2167175956854993,0.1393159983039579,0.06200727741673151,0.05513206732108278,0.08930155281723118,0.16192532831348883,0.23816328289205535,0.2968735994899473,0.36878480006241976,0.46321575901023804,0.5645475856070988,0.6687809688411342,0.7727088387387725,0.8809437559205558,0.9810625811126815,0.9876686406557008,0.8913240769301171,0.7871269119271781,0.6799634125400652,0.5710660754479219,0.4653779445677152,0.3635101839025302,0.30524782837543174,0.2606146654284648,0.24019115358096677,0.2241946399854281,0.15229714929907712,0.08532716374376947,0.11793080554215807,0.1964660312687384,0.2640242896436028,0.3239798297318689,0.4118787384167871,0.5117980483678638,0.6095548375482002,0.704957682086473,0.80942418993885,0.91134901209073,0.955801094297903,0.8778994092737359,0.772104132887777,0.6643930153861756,0.5603894096992265,0.45218433948303904,0.3490974931493357,0.30153415657709715,0.2638575997971896,0.24454710570328653,0.2360777950692442,0.16826311364705215,0.09203295916759979,0.1029403670035085,0.1812863736451974,0.2522606997778686,0.31024390946002056,0.39160126645369886,0.49048373077314766,0.5920842034517516,0.6949266725266806,0.7839196902259565,0.8762539462060995,0.9163633472295437,0.8358075761747578,0.7359682653007388,0.6476920044518389,0.5604735943800571,0.47360120226314784,0.3820218631261362,0.31726257968237503,0.3185354932000005,0.28314154741752773,0.2735454341481366,0.2389404557775906,0.16031437533280746,0.07571211028522318,0.06517752066279581,0.14484810112864788,0.2264950270072298,0.2931593799326736,0.3476124604401184,0.4323622964074537,0.5379747912112146,0.6413694748090198,0.7440312303529758,0.8459214148611004,0.9273323136025965,0.8910950865427302,0.790481539186869,0.6831588886614813,0.574395458695181,0.46954756873255754,0.3664375105762602,0.3216502811752592,0.31235506015552394,0.2843535558446061,0.2643438856847372,0.20473312047280012,0.12098570745574067,0.06706632077773633,0.12131958255778608,0.2051133639493613,0.27066747656039747,0.3320266277955174,0.41868071512586347,0.5183288514172856,0.6230584713056041,0.7308643491850811,0.834708378736703,0.9368862876883485,0.9805712660251568,0.9094077513590876,0.8072340650879043,0.6988291900898248,0.5908951906550454,0.48692002345699137,0.3791075807674741,0.29702285423836206,0.3068950775944502,0.27789786834170493,0.25289283480414493,0.22062170961847338,0.14747097447441526,0.08310441932383539,0.1181622649447841,0.19672732922702918,0.26255927167730697,0.3253642973182945,0.41310843971366407,0.5136250388758258,0.6163966282609784,0.7208836432319684,0.825154867770597,0.9286268488758224,1.0,0.94396023612556,0.8376930281322142,0.7314115917783818,0.6264580701154258,0.517716819024952,0.4116362013662024,0.3224307190708654,0.2930363729798581,0.24962558107241717,HB
0.0,0.045254518432869914,0.09455888115433406,0.1438732122584325,0.19318732938245833,0.24221341018014111,0.2878673080655979,0.3357380323353253,0.3850408478255319,0.4343551789296303,0.4836695100337287,0.5329838411378272,0.5822981722419256,0.631612503346024,0.6808716657159556,0.7277267973169614,0.7742364314788296,0.823465807809025,0.8727783290365346,0.9207275581552927,0.9433965146736973,0.941676130175002,0.9419320748593223,0.9317954259932009,0.9007836215778166,0.8652604792443411,0.8321170621025625,0.7982206082260235,0.7824940034295008,0.8055031649909106,0.8398504970844427,0.8682922956374393,0.8859353356485135,0.8928922437392423,0.884461693150628,0.8646076398689329,0.8192524471840071,0.7699554141528805,0.7206410830487819,0.6713313788468216,0.6230267312521002,0.5776203484475819,0.5287869376889822,0.4794809710898391,0.43136848945162765,0.3858636375861608,0.336934007471535,0.2876201430186817,0.23831766296612802,0.1904591456363582,0.14479632589542032,0.09576705119691029,0.04689191063199913,0.010690780186049995,0.028407589627831364,0.07493064130174976,0.12063056952049123,0.16968549736184507,0.21899968572814799,0.26831401683224704,0.31762834793634487,0.3669426790404439,0.41625701014454175,0.4654606749011301,0.5117677438673454,0.5588371395861997,0.6081103146075427,0.6574246457116416,0.7067389768157396,0.756053047139099,0.8050584860395665,0.8506614018937029,0.8983415340792086,0.9333082858554896,0.939727234409913,0.9534045733973114,0.9749931870974978,0.9910635266272626,0.9576842678987748,0.9091923773152918,0.8633061333015709,0.8157527894707378,0.7664586953595091,0.7171443642554101,0.6678300606283376,0.6186900972531705,0.5727041763038733,0.5254704304326504,0.49413627550897254,0.5266156712841589,0.5757497066468229,0.6248522159947517,0.6707080215200234,0.7183073211742133,0.7671902911974906,0.8126477318533889,0.8603505487409755,0.9006234562193255,0.9060604618941966,0.9105808852403461,0.9085287866536057,0.8955817379402313,0.8728250127316474,0.8408263205755876,0.8109642213482106,0.8163593438558547,0.8516455575377249,0.8861467822615157,0.9195736637579823,0.9482090339959801,0.9602553461901056,0.9581516873666202,0.9666373453400962,0.9845345391387325,0.9622229572310964,0.9168843882443863,0.867786599157391,0.8213155236543607,0.7744177117183111,0.7251550291274983,0.6758406980234005,0.6265263669193014,0.5774915506692981,0.5483833405494689,0.5827332203467711,0.6317687105638935,0.6779093118387763,0.7251599532249906,0.7734170943874087,0.818830936017723,0.8671371473301995,0.9087476563643528,0.9144894854529232,0.9023898641533943,0.8992451259082181,0.8954615145143373,0.887854348014253,0.8903118978266618,0.9075090865970604,0.9101674349224227,0.893838581113252,0.8692451482222223,0.8349994631266503,0.7996992801309919,0.7951599324049097,0.8268739270579591,0.8665334162284793,0.9030570808594789,0.934409240123309,0.9543076847528168,0.954641955529246,0.9602167444805241,0.9832397003726178,0.9665248203559056,0.9226108929736053,0.8736746263018186,0.8253608765289517,0.7799540149259968,0.7311304106790609,0.6818169083247989,0.6325025772207011,0.5831882461166022,0.5338741667229653,0.4856302773522412,0.4707389576844565,0.5130094069477187,0.5591166770495767,0.6063819102330008,0.655567608944972,0.7019786426941094,0.7489391054214014,0.7982046635563024,0.8475001733381211,0.8947010937298681,0.9241785733073017,0.9166475918600129,0.9074533018116959,0.9153778631228684,0.9201694734711575,0.9049021580799533,0.8770874775633506,0.8422101251541164,0.8061968140286491,0.7761955774222244,0.7911790993119275,0.8294752098036645,0.8666637688219889,0.9031536941231669,0.9368585745713006,0.9623778851215797,0.9622754910406526,0.958005356676596,0.978909798046921,1.0,0.9708670094452697,0.9231687641104156,0.8777737091660445,0.8289748292311679,0.779661457833877,0.7303471267297779,0.6810327956256799,0.6318471903189047,0.5970345116385705,0.6235587599329638,0.6694121107653447,0.7185759298804649,0.7665623844007514,0.8121229547725514,0.859589246489626,0.8977341393371563,0.9073741806940613,0.9063500581626227,0.90827844824638,0.9040360666441277,0.8940424484320186,0.8747771051603564,0.8454315819649799,0.8138681247535069,0.8154148685488206,0.84727275706436,0.8818979797290556,0.916327373451761,0.941473664234272,0.9586427120764845,0.9674893904579056,0.9753362962949691,0.9964422906062579,0.9861097377015852,0.9428509732756912,0.8937395072211796,0.8447444256674549,0.7991635188936524,0.7511905566117566,0.7018859549752436,0.6525716238711433,0.6032572927670455,0.5539429616629478,0.5046286305588499,0.455705289403972,0.4298441039401211,0.46632549230626935,0.511649819825708,0.5599454218477034,0.6092370938922456,0.656886349394172,0.7026266270849615,0.7474460706361761,0.7864353976217031,0.8245898772985513,0.8724075591891447,0.9080269314506532,0.9092761007270781,0.9069803972585213,0.8998547977688551,0.8923125366090999,HB
0.5290517584856389,0.5497225190082804,0.4812010825683955,0.389056690242308,0.2997437617420509,0.20706689465412792,0.11519942135457756,0.028460250594233016,0.0,0.07286741536149405,0.16455499864889184,0.25868097293956865,0.35284315481785294,0.44633838200878845,0.5288606919211294,0.6089785368471212,0.7016787397524138,0.7771035792203151,0.7538898191622216,0.7024914743603607,0.6568357182604125,0.6071349154049546,0.5986110335889183,0.6454214125907454,0.7055641787445106,0.7392295146074874,0.7400305738688495,0.7305805645858883,0.7570827327779048,0.7824951440803092,0.7251857163028259,0.6367144945551557,0.5477094690181605,0.45692320314240825,0.3668934138431585,0.27482530640843766,0.185279468236698,0.09338022697808751,0.04342595922758252,0.1024412463110293,0.19543765913780625,0.28959847005360567,0.3837612331939016,0.4779239963341975,0.5720800264629566,0.6643427786794169,0.7437644138481241,0.7954938798368529,0.7525045950647045,0.701906780760124,0.6535931101767465,0.6096783653763664,0.6228025055855386,0.6775428123938765,0.7255523250661515,0.7334125030521805,0.7210129170098161,0.7215063484567334,0.7555022885248037,0.7444373658659522,0.6652775331891438,0.5769190045662027,0.48803285847346406,0.39586367584834387,0.30507623983235294,0.21426187805343938,0.12120134969619606,0.03784892496769959,0.032576642573870274,0.11515258522459165,0.20573879979123272,0.29976869936743394,0.39388536327398377,0.48550076895267663,0.5732562456000849,0.6573084130823292,0.746182312251231,0.794983726234739,0.7508164086552065,0.7005069590419053,0.6527152711760471,0.6064884939244428,0.6080671788634542,0.6579209089099733,0.7063977575247951,0.7163152774854868,0.7067633126799657,0.7127591927337458,0.751757549548282,0.7451008008260687,0.6678135901496711,0.5796043079716253,0.48938000999877523,0.39923235746890057,0.30718363954246614,0.22950113631003405,0.1548610689550623,0.07929979741631438,0.010951929299152674,0.03523172418313725,0.12345152747883831,0.21338509458677818,0.30728122995165025,0.4014417943968847,0.49488522530484785,0.5841354131481951,0.6770134983804177,0.7656659355712454,0.7773070170338221,0.72257935220239,0.6758379243365447,0.6271556873467987,0.5987726595190994,0.6314432659389395,0.6909420601797025,0.7273445407324051,0.7285042880194583,0.716749986460153,0.7422826140125662,0.7744170875253242,0.7309114379988608,0.6447658018929872,0.5603728715882532,0.47825824972221215,0.3864780770539356,0.2971539893930362,0.2037447974962358,0.11330565870952752,0.03440038983088922,0.052119242786068776,0.13722368139493796,0.23021055278428165,0.3243661182853848,0.41801103847922333,0.5074224237202765,0.5999539771173734,0.6940897502439236,0.7821580555238372,0.7901374417168598,0.7327872123725847,0.6858386992408954,0.6368345637328998,0.6195050436005072,0.66034020976075,0.709224649807394,0.758081882854122,0.8287296991086546,0.91209128031017,0.9845880910465783,0.9655183898969959,0.8808152880136715,0.7887011352890883,0.694566694421892,0.6037745294810279,0.5829066035566777,0.663212053465791,0.7497522468191493,0.8056923881022817,0.7911845556927954,0.7517590524230973,0.7474726125458713,0.7527318563047649,0.7297635094900661,0.6746783067006477,0.6267228362718951,0.6416426988311559,0.6897046880803641,0.7374660625632807,0.8000591480035824,0.880720650889737,0.9575376082448235,0.9542856507313839,0.8717753162065836,0.778040169752424,0.6838779200920908,0.5897151569517958,0.4955654373143003,0.40785991579946274,0.4086816002321672,0.4938921370568245,0.5836376249226574,0.6723773813241547,0.7563766713931248,0.7930118811346762,0.767266719203602,0.7313100143200986,0.7364584657997295,0.7402277198618219,0.7204543636985994,0.6679129412846498,0.6248839171412364,0.6447576944482694,0.6937066617386378,0.7407156403666304,0.8052233205344694,0.8875231738728362,0.9647195811348972,0.958929987763689,0.87212053184174,0.7779886404163363,0.6845666704872246,0.5953292085704505,0.5062521855600957,0.49046492467266295,0.5697069306714149,0.6589595774275565,0.7450446332181595,0.793430649752837,0.7743566459282134,0.7424448638830126,0.7487135864632575,0.7538128404558102,0.7380080226706578,0.6868192761758454,0.6365512015655446,0.6458743417243702,0.6955296611198234,0.7433303490388925,0.8060880816255902,0.8868280595688387,0.969232617730569,1.0,0.9285658477727028,0.8358624678951532,0.7466640358761414,0.6534447425903422,0.5592882438520792,0.4682109154935454,0.4459376944627315,0.5236135827414496,0.6148785311366829,0.703771709727302,0.785837260317821,0.8128466195800512,0.7831380550978233,0.7564327863794738,0.762597968953239,0.7573961515549141,0.7172143797921302,0.6577381384128584,0.6225506162349022,0.654784501935155,0.7022966738986591,0.7513220492345909,0.8220194909333893,0.9056555798173962,0.9678254762419398,0.9255584524240346,0.8380625731510205,0.7448948755329936,0.6517046453361137,0.6006774545026701,0.6606490963705858,0.7454052658879113,0.7926161431981034,HB
