0,1,2,3,4,5,6,7,8,9,10,11,12,13,14,15,16,17,18,19,20,21,22,23,24,25,26,27,28,29,30,31,32,33,34,35,36,37,38,39,40,41,42,43,44,45,46,47,48,49,50,51,52,53,54,55,56,57,58,59,60,61,62,63,64,65,66,67,68,69,70,71,72,73,74,75,76,77,78,79,80,81,82,83,84,85,86,87,88,89,90,91,92,93,94,95,96,97,98,99,100,101,102,103,104,105,106,107,108,109,110,111,112,113,114,115,116,117,118,119,120,121,122,123,124,125,126,127,128,129,130,131,132,133,134,135,136,137,138,139,140,141,142,143,144,145,146,147,148,149,150,151,152,153,154,155,156,157,158,159,160,161,162,163,164,165,166,167,168,169,170,171,172,173,174,175,176,177,178,179,180,181,182,183,184,185,186,187,188,189,190,191,192,193,194,195,196,197,198,199,200,201,202,203,204,205,206,207,208,209,210,211,212,213,214,215,216,217,218,219,220,221,222,223,224,225,226,227,228,229,230,231,232,233,234,235,236,237,238,239,240,241,242,243,244,245,246,247,248,249,250,251,252,253,254,Target
0.6997516059980556,0.7508610212618495,0.796643237339023,0.8238498341237891,0.8327755878047273,0.8353959363483129,0.7968480125770133,0.7330459335614284,0.6572439998910161,0.5710571259558322,0.4829291437363964,0.3944578724261719,0.31387512927047967,0.33413113559485963,0.42595498406690513,0.5206830096445084,0.6154128514844351,0.7101370447211289,0.8034089149191671,0.8900135472639609,0.9627894253152472,0.9547732311747327,0.8829817870502795,0.830386310896089,0.8061069910337376,0.7790876926028251,0.8061175104490291,0.8361179489597211,0.8492803745717975,0.8476185819358023,0.8165660476626214,0.7611691391456031,0.736070725715536,0.777382139670297,0.8215609981425139,0.8575535138382334,0.871876669961334,0.8760215339159888,0.8553697153290644,0.7979267431673599,0.7235827756431948,0.6414475674720502,0.5550220946190197,0.4812272743638092,0.5235210568487217,0.6170916729013313,0.7088077037771884,0.7970116346636088,0.8854161617634623,0.9687498397983952,0.9999999999999999,0.9423043455443764,0.8764011757623219,0.8663838561122995,0.8433228068303834,0.8159284375690649,0.8474972103313868,0.8628010940569998,0.8429016601003473,0.8183158087461476,0.7856488193030927,0.7342596831292795,0.7182901553799433,0.7660076369987129,0.8142762959729865,0.8501065788796734,0.8680756183592356,0.8611555586255336,0.8421048181111587,0.7891524738379468,0.7188230750468955,0.6352449672043282,0.5466406261164342,0.461411908380262,0.47672291180830795,0.5679352933388523,0.6581015107887577,0.7479477295437179,0.8411384880819502,0.9275427256580705,0.9907325220639868,0.9612400455138438,0.8862998148962088,0.8411843945688221,0.817078136461422,0.7841175806573938,0.7923949884168863,0.8095636039308142,0.8050750600016722,0.7796122436699394,0.7481920984780756,0.6939911246054752,0.6655405796573451,0.7014428799889406,0.7401251022077361,0.7665376654696469,0.7733377742568269,0.7670214841554343,0.724470330239381,0.6617234367904804,0.5863250588990937,0.5030255364687198,0.5032854018987453,0.591456691617852,0.6848338542470193,0.7724027878895402,0.861354048642497,0.9219106610851365,0.894016609589798,0.8219294788540791,0.7835428535641286,0.7583701058415097,0.7547758185147141,0.7879958059728217,0.7863353250745061,0.7750898719126246,0.7535119163035492,0.748507551139722,0.7612854819209532,0.7411311490088118,0.7114273830212484,0.7325191918789807,0.7572433834477553,0.7885687983488608,0.7761121343113354,0.6915167469002858,0.6020901308903434,0.507659293333765,0.4172974755552582,0.32763555863701577,0.23308586130395137,0.1406630228109257,0.056705468886833366,0.034952258022097005,0.10982122403366656,0.19830912952449442,0.2871928668319427,0.3764068001462141,0.4638672667206539,0.5523267651907172,0.6329853033817269,0.6991760473808329,0.739301510890002,0.7394047531926063,0.7194623301040158,0.689324129688672,0.6462185773835866,0.6195557843424745,0.6570103912360165,0.7143812800132486,0.7486446339144609,0.7673327706554113,0.7653167055556339,0.744479697149213,0.7632497616822081,0.7970907003155981,0.8269799836496988,0.841720868076035,0.771208152616819,0.6782216939955555,0.5902024810149326,0.49783826908433537,0.4031317837822096,0.3097929374075815,0.22216513788565806,0.1286492946912594,0.037389753426818384,0.0,0.06637046875535291,0.1592202542869149,0.2483955066309237,0.3389671310242578,0.42770320411532936,0.517832826613485,0.5967690791299175,0.6694495353393889,0.7371529324026974,0.8020463848791709,0.8303639342610044,0.8311632507624073,0.8063599988387397,0.7637007577227338,0.7104147023511483,0.6756027117171169,0.7030078007250941,0.753480896542739,0.7884722503010583,0.8144673465680609,0.8313971511339268,0.8087031864808741,0.7808577373730671,0.8023655360144516,0.8237466869816484,0.8466835420789623,0.896708355297878,0.8517796135187968,0.7620795575691787,0.6716058579729808,0.5821239794145766,0.48758461425498634,0.3928601555774377,0.2995538476540188,0.2119218861077311,0.1189478712173907,0.055369467734412536,0.10091010254778388,0.18990615234600072,0.2774823164949799,0.36790374432378437,0.45652189510122676,0.548032141649771,0.634792059349467,0.7156275462453622,0.7892081045569223,0.8371689670035759,0.8422043881712206,0.8256552273622689,0.7879094608152669,0.743725266973356,0.6955736959699484,0.7015402911036172,0.7555706549988571,0.8042088592115147,0.8166853368130501,0.8092985004364869,0.7816334688605765,0.7457997412329774,0.7572903060082571,0.7901116787894488,0.8138596161476167,0.8308153482420358,0.7626391176019557,0.6696353453489531,0.5772109237200195,0.48921908945173553,0.3951365959191243,0.30053024370429615,0.21045738146492454,0.12063175752990019,0.03876660371263385,0.047802671783409245,0.1310752724217782,0.22067754594933564,0.31047589147184473,0.3991107734383713,0.4884499636313243,0.5756355092605553,0.6607868941754581,0.7352157596397483,0.7933837752963825,0.8032489728174735,0.7914609157002893,0.7577990758474668,0.7067751444520717,0.6570392549571645,HB
0.22188975400983635,0.2319890661609625,0.1859569129578582,0.22501974644514489,0.212621883885189,0.21470564286894467,0.17883272661316507,0.16078062428913986,0.15045284702976414,0.206667872428683,0.2490211436289136,0.2857995206563877,0.29043280283799433,0.32667861873455806,0.35704957214684896,0.30864246789386307,0.324866813883971,0.3576733787259325,0.4204088781347153,0.5309362662630694,0.6496359437258734,0.779981784556147,0.8965132786942052,0.918124928551296,0.8118319805900569,0.6798995972121764,0.5410673608766787,0.42942944682647566,0.324671665304594,0.30619275832674164,0.335598983246598,0.28376613345517354,0.23788612110532847,0.16977185100634307,0.13775123201118555,0.19998700836670746,0.2268772925329139,0.2546760417114955,0.24416671609937346,0.25562706832643256,0.251957344747507,0.2439402097812371,0.23743953917082372,0.2192445619659571,0.19057395550078393,0.19113150989841188,0.1469369672362557,0.17829760039232,0.25820202389734126,0.31220101609344697,0.2787611781309356,0.2831149629742269,0.3207084106952842,0.29009135656650953,0.27282120273025257,0.3244099137163823,0.41437569771426386,0.5258269169131657,0.6367331273137262,0.7686385132287614,0.9040684123258798,1.0,0.969644218595052,0.8455501088793946,0.7181413303552939,0.5826845293073912,0.47760912366422925,0.3760287210277107,0.25454265750982863,0.20756822336907765,0.25996952639410775,0.25049295755631684,0.19996585621671104,0.14191058124553724,0.12668096710201793,0.1789849997036015,0.22523761164829903,0.23293401729111807,0.2418819475738032,0.24299149528193453,0.23409702672837707,0.25499820162765197,0.25036636988345196,0.2540141028010301,0.21286042333422772,0.19038841427254072,0.23548669932683275,0.3036786001487193,0.3160268967367106,0.3255282152706833,0.35027105822400584,0.3655189158739027,0.3139301411246458,0.33041119550543785,0.3451453190197178,0.36901938973729775,0.4879039807714154,0.6076466202016522,0.7308116213656195,0.8630732969232371,0.9701174643522714,0.9626664015380548,0.851459824790048,0.716533826751681,0.5786834095529776,0.4597387246852538,0.3452816429508938,0.30497971956648984,0.2952920112382982,0.28838621742897397,0.24482758536660887,0.19203810079936412,0.1804675249399068,0.23497463118325124,0.24578622015835405,0.23014445276489193,0.2348920157492831,0.2057046646487266,0.23205336169093727,0.23568860477288744,0.21565736741529662,0.2380883177141513,0.2098297002376901,0.17183032101103057,0.2049855267943963,0.24125877130641493,0.26649637905843404,0.28297295633387565,0.26803155247333477,0.27035619280512835,0.3099037597637735,0.2822222149243978,0.22020591010678547,0.18915201736268017,0.16647989514546024,0.14082239393276108,0.18844734213674386,0.1910720702161548,0.15928989212853706,0.12710272386589638,0.07611507106920357,0.06770970847401392,0.108814647980501,0.1383741694199787,0.13319717862614988,0.13110963632612993,0.09213007171978349,0.11294245061387231,0.10902940050542664,0.1322247026776382,0.10584200167310298,0.06152791808417479,0.06680977385367015,0.07594530131870103,0.11015970558129817,0.17474071813587022,0.16128404281629205,0.08684105063786962,0.11821111856248834,0.23708700838281782,0.3534701486242424,0.4584385015580694,0.529490422756461,0.4470879600850375,0.33269992612150157,0.26297053693138306,0.24773460401917546,0.21376959466006706,0.1928805397916764,0.23643790272730492,0.2337212092111458,0.2236726226527348,0.17913111285251038,0.14279527519334945,0.09784031462259435,0.08729412433392536,0.10929717449653831,0.1456924673992921,0.1315004699907374,0.1285526302739659,0.12819644219635062,0.12785567791030372,0.14218263446343915,0.13857254838001687,0.12389905891976305,0.10051401909174018,0.03766238883878614,0.0,0.05329482734244406,0.0796720298532918,0.14033639234512574,0.13822918148380836,0.06506568198289742,0.08817219037942481,0.19349052114827092,0.3149611939507242,0.43425824307644856,0.5585721988307215,0.6664332359891696,0.6026995181866166,0.4878288151281396,0.36421436894604664,0.25942692887223107,0.1917268975039046,0.14752128816034782,0.17329210454123656,0.20242415306087835,0.1767848725902943,0.1890992419622579,0.17909163355056767,0.1213464906068249,0.06343384708713895,0.017558551981619708,0.043031663851109236,0.0973806677061324,0.14307985898325848,0.13081147918124447,0.11572524487815095,0.13145411093616355,0.14570079473426611,0.14100418190591268,0.11558866421427805,0.11089265553130856,0.0739992892225656,0.02020991018410534,0.0685710317322763,0.1346087671901839,0.19033193440974294,0.21649065325061612,0.14709656826826878,0.05250833477063788,0.08439941906896964,0.2022454194371055,0.31644721926338093,0.4131577400978883,0.5056466081216198,0.446898564989914,0.34081819135332037,0.2765718016452059,0.24181495353933746,0.20440751253298917,0.2070989517674935,0.19348344330734868,0.19503303371756298,0.17052139604931016,0.13549119764597561,0.07601837691082824,0.06607006944879235,0.08142587618179542,0.1145346558549738,0.10097586892038679,0.06119412951296521,0.061822686630092605,0.12575686952283816,0.09624396829122661,HB
0.8192942093004868,0.8517059181228658,0.8260378129094906,0.7838831490514443,0.783314467729357,0.7825201113488908,0.7617661596553417,0.7543385339705829,0.7508837447442286,0.7444583054547141,0.7282180897780505,0.7430601341237008,0.7788116384264888,0.8132146029024686,0.8438538353375419,0.8598959746023859,0.802983826515529,0.7221280284768307,0.6402748377538033,0.5558259164657203,0.4703024256894338,0.4349931004264386,0.5040224323760715,0.5878991638935155,0.6705715118998316,0.7579510726788273,0.8398114487006095,0.9229440330117885,0.9708536878416169,0.9209410034963953,0.8494099874415392,0.8168679671663269,0.7764877530364839,0.7450604717821393,0.7694396618049225,0.7802075997256132,0.7788130461502888,0.7702290407266,0.7612396900578712,0.7443201501290225,0.7212877630259446,0.7253408714698545,0.7434711028663604,0.7473626168978912,0.7481983926482517,0.7006395029614957,0.6225990825654176,0.5400977404867192,0.45790656454477296,0.3733007458436214,0.2974620564907694,0.30194912189201284,0.3850754278348095,0.4670746875415249,0.5517705177788584,0.6357085050360477,0.7183970458795076,0.8018094998274231,0.8196265681777118,0.7531551825618056,0.6813920414542923,0.6475541677593873,0.6191787696128855,0.6214872580143286,0.6647718803199788,0.7115364507691481,0.7410887444584106,0.7278510049308765,0.7225320290849936,0.7840949037714352,0.8479739623746735,0.8821462878330549,0.8611875110234747,0.8447687902131168,0.850758172429802,0.8635908900679446,0.8924298282136115,0.8995358913656307,0.8407541047214256,0.7611936336222139,0.6775303894124268,0.5965634621096682,0.5102829267038956,0.44460150899742923,0.4909915522495586,0.577605028107773,0.6589200807876817,0.744571723836572,0.8282918587322147,0.9109784034313616,0.9884074666063624,1.0,0.9382120950114893,0.8962102779525744,0.8640979030800636,0.8292116491767908,0.848178801563651,0.8641944946474108,0.861457018846031,0.8689558350485264,0.8651333388355248,0.8567588906981457,0.8522178542712292,0.8572010674600606,0.8311011695508034,0.8287984795107614,0.8570050160255284,0.8388344900491774,0.7618094741593854,0.6921746520355109,0.7253504031505184,0.8096698732593645,0.8906234100358715,0.9687997511316474,0.9806282784216459,0.9081771140245941,0.8521914741366073,0.8379744575061056,0.7961602227293315,0.795260495807009,0.8088708899264042,0.7969696559494143,0.7361339986145542,0.6500177151801813,0.5658376298087847,0.4936866141077533,0.4155471863880299,0.3347680728194963,0.2485742325744159,0.1682870138816125,0.1319884677336971,0.1940877900928758,0.28156311769819664,0.3690300644763126,0.45060316381624543,0.5357307421443293,0.6182579790284036,0.7016090340142961,0.7799488412569379,0.8114291923284472,0.7909725147723149,0.7962159342222238,0.828947178222525,0.8232103887340158,0.8275271035734985,0.83534443804359,0.8358925880108593,0.8306310534988758,0.8213598422188341,0.7967157700821791,0.8163822132028534,0.8563552699462401,0.870890752476171,0.8561813568916304,0.7822192742162993,0.6971897582425653,0.609845491589713,0.5284530090098368,0.4428821405566322,0.3581687622772066,0.27624294706323116,0.19409373486929782,0.1520551944102243,0.2078575411708593,0.29142818710350615,0.37691480287880663,0.45833565785887875,0.5453515363249904,0.627175622722198,0.7104213225864232,0.7905643406582837,0.8483284489570716,0.8363217216072157,0.8198694461651829,0.8166745439777706,0.8200835093955104,0.8422516232893636,0.8236395693049753,0.7628801403699378,0.6938327577298676,0.6710399854039063,0.7014517965793098,0.6977331960834646,0.6542343190164491,0.6053817493130288,0.5725775806860599,0.5936575049345186,0.6222258547842608,0.6455887004804187,0.6252481601968617,0.5467296390858848,0.45949942127509413,0.37742332550537594,0.29274302403624575,0.2048305699326055,0.11697195323642873,0.03523374630464404,0.0,0.0567778889856988,0.13768015921970922,0.2247062241804797,0.3063815570753282,0.3915683078209663,0.477436958784092,0.5583958978315043,0.63958708736155,0.7027328864911772,0.7123743851519465,0.7180160025678936,0.7021610626752425,0.6900965266869822,0.7060959274848632,0.729521581386822,0.742071298071933,0.7454895161468297,0.7425840507964633,0.7377114595235775,0.704742247036538,0.7253712561739144,0.7730263097865614,0.7997883129373672,0.7814447270426025,0.7074356617064447,0.6208366347268547,0.5387823935717796,0.4541489505359685,0.3701448544352618,0.2875232727363407,0.20181519308141238,0.13104414009151022,0.1406851938862621,0.21759702853107832,0.30158529387351873,0.38946675231971584,0.47740969117545295,0.5632819272887409,0.6444982937794413,0.7292710738719784,0.8003444364736484,0.8056535591027655,0.7792316593085634,0.7436118529508783,0.7100341023812856,0.6999249916956741,0.7158830870963947,0.7169946487567528,0.7246878166524927,0.7214856958354149,0.7414642994765438,0.7536925219681624,0.7404456799391615,0.7645227993944247,0.8064170099529163,0.7927453635920695,0.7356642041825742,HB
0.5606803117050765,0.5551989569737383,0.5618805552807515,0.596823115060368,0.6379424114357048,0.5683159671726088,0.5283854336136811,0.6569833180828741,0.8013080535031447,0.8443084261158429,0.6952489315839241,0.593101761753565,0.6057723524793364,0.5996342283063534,0.6155622267105265,0.6136989240006718,0.5982091425936815,0.6055408407628606,0.6645380698630916,0.6424268297328863,0.643155123749203,0.6091502943125846,0.5055333899071179,0.4224537304894822,0.4493941324746178,0.5373264491896306,0.5979015651803268,0.5570914064126944,0.5978870714103941,0.5448197085913487,0.5783455195420091,0.6609593537805338,0.5624060777126889,0.4065305798436807,0.4035049174273668,0.5169322790580608,0.6023056978330041,0.6190196770671399,0.6625596911166367,0.6083186016484543,0.5173926728304528,0.45291187651018205,0.46529599902375285,0.5590347414251058,0.6087961271933873,0.5851402636906782,0.5245622524090781,0.45689580117142814,0.5479887076355636,0.7160906972650602,0.8404462458780158,0.7711911106884397,0.5978817265240588,0.4697400352416423,0.5588014212551089,0.61964914435727,0.6393201662474217,0.6013851803402526,0.5791959352882419,0.49930074030304894,0.39736060613439417,0.345195518707909,0.4042006765466635,0.48199035795403944,0.4848888564600431,0.5258981864524488,0.5706587845368567,0.7223821581348995,0.8988484852782754,1.0,0.9053546481826533,0.7353763068631531,0.5583657771537025,0.4957342809838883,0.5617209258931473,0.6051189087462507,0.6333744760299806,0.578582103787169,0.5307727949346699,0.48873254431593605,0.5005620339875234,0.4866059096457125,0.5052551360687412,0.5281413575102984,0.5796954100427962,0.5423617740466344,0.48607918427239394,0.5664816606776073,0.5083618188206769,0.3735548572424481,0.36766309522596696,0.45925843453931225,0.5217995219594709,0.5922703531430669,0.6303169731743425,0.5557353621550662,0.5028581839824637,0.4989783135413228,0.5196471457366796,0.45649293624384324,0.3950832845590009,0.4186876526450627,0.4583290485789986,0.441599736427543,0.3713493255251432,0.37666322208781366,0.5120351173847197,0.6002453298431494,0.5198499926159972,0.45255742350751316,0.4456597970157121,0.40318665576527124,0.46004353888942084,0.5620781506961121,0.6949184358058211,0.8272262907486336,0.8884855501682543,0.8157387495636028,0.7021328186173994,0.6115062878019195,0.5838286117518825,0.6114650468199407,0.6745997201269347,0.6257082210148077,0.5190636281922272,0.5195062134127335,0.4623371211081819,0.4487385078781987,0.4937989013498365,0.587183733742175,0.6991383263030917,0.7154482822522175,0.5834860312270225,0.4515401703673678,0.33261619287123523,0.2689278137095519,0.2848130118280654,0.29512471302874577,0.19837018480114743,0.1521543653848605,0.3044123508651664,0.40061656894326436,0.2794624060365045,0.14497035737535846,0.1743124039441808,0.2786409875421034,0.329885356694521,0.2987663107971219,0.25959049545330704,0.26098933311380357,0.3230315380511595,0.38655407454971336,0.37429924485522914,0.40615761893708147,0.45689189451494183,0.4625014799501992,0.3860694721326938,0.31955962517266734,0.19528840556733673,0.0393273691142646,0.04763853564083931,0.20758842862135296,0.31660056733257846,0.26371411672285827,0.33770652412471147,0.4457118928302837,0.41130136483868807,0.36699167413766265,0.336645149939387,0.33827324081012033,0.3492367290748293,0.4064921322956154,0.4320634172848212,0.4262949157577154,0.47490028372883675,0.4389973647825345,0.34569302309604133,0.23340292442395416,0.29473998786671274,0.4677207751704682,0.6505695302520795,0.6847761993778452,0.5014283098844254,0.34737316569455334,0.3564082818749803,0.4128356060740197,0.35366026481377055,0.321068480173448,0.2497003374999771,0.19283853681405905,0.23865681045260256,0.34548618643029183,0.42458850231459255,0.4938573155429893,0.502694953405924,0.48688951034363814,0.3924162806386189,0.2334525805817247,0.1092849658689179,0.18322340592620812,0.35630260327706775,0.48791748221173314,0.3620750720049575,0.2321695764876619,0.28281222130473704,0.386472078443294,0.4265031207407475,0.4807570855018426,0.44810826696197115,0.3486673379532057,0.2928724791533739,0.3440017400258384,0.42388649297237624,0.5023503365509177,0.49225076702842685,0.44818804886839736,0.325066100834726,0.1604983930976669,0.0,0.007406555882854882,0.17385775716258856,0.352860355179474,0.37461561635234464,0.2658400027312853,0.34108745928851913,0.42969069288093653,0.3912918820898561,0.39905182026171016,0.3389469795092426,0.3115681694123582,0.26239888918110843,0.3242965032144909,0.4283674989609194,0.4917449277187016,0.49904703061952294,0.488584454294533,0.4634474672429345,0.4784821970737152,0.4708416458850673,0.46654071457347523,0.49253736444448926,0.43602338406142493,0.2935531321768705,0.21301220875755966,0.33912632728554826,0.5137788598734687,0.52881701313708,0.3810917390145807,0.29513305852741745,0.3806033800641604,0.45457265576826256,0.4417588038635145,0.3907970448371625,0.3944072770414593,0.37260298773818157,HB
0.3014996594900128,0.3350120639321308,0.34633038603502464,0.36499784262451196,0.391676047069313,0.3841769978494052,0.36594221466090704,0.3517481000918077,0.31170007251991527,0.24664267844033883,0.3033797277374839,0.4124914557734838,0.5051532244950561,0.6183485084265092,0.7276445101896429,0.8201966789563808,0.9241720780879217,0.9260357885854129,0.8182429331500949,0.7046115943831943,0.593207816805233,0.47600781138737935,0.4099438430433253,0.4300198124807435,0.41131669357438416,0.39821675086512864,0.4205967679346496,0.43682515485678386,0.46334173463752104,0.5094860164028316,0.5088462987798026,0.4692491045899263,0.4353251675375238,0.4054205431252955,0.3516273161891512,0.3452809355130786,0.4529559621398287,0.5644978823453226,0.678007614121021,0.7970553973032246,0.909962441363332,1.0000000000000002,0.9690341489605816,0.8556902196051739,0.7398850880207852,0.6301740861804033,0.512154879629158,0.4238779859705868,0.39834287994537143,0.37946443952856934,0.35341509080860267,0.3651974876443498,0.38346366853129754,0.42014756390455754,0.4431149300027666,0.4216604141562461,0.3870036358237974,0.36068535639150334,0.32231157976114155,0.26981595966461325,0.326038427027324,0.4410029744376567,0.5501706061932883,0.6681120110158132,0.7839965601906258,0.8729626755945972,0.8371955291427666,0.7215922772807615,0.605429762774188,0.4959509310948016,0.38223378437550193,0.3364411241122218,0.3226509935179933,0.28195083994300885,0.2659727988406664,0.2917832086213308,0.31333887440261265,0.35066885375167156,0.3897666733729708,0.3878825960009389,0.3796328041560584,0.3787166700912652,0.3419524196912336,0.34145278018223313,0.4434875547415127,0.5448900860271555,0.6553608704683975,0.7725299858744046,0.8492932471087105,0.8025746386791919,0.692721758189071,0.5745342701857992,0.47045552395129087,0.41973511565628185,0.39721029749719494,0.3597153052282793,0.3233205725345336,0.35468873545868473,0.36915850901978087,0.3761099560255021,0.397807282550114,0.3937746173035157,0.38315716579900916,0.3729226105652035,0.3405128563994222,0.3092268115317356,0.39567908185681433,0.5083355382887536,0.6202135659648185,0.7302103730190443,0.7625803926004273,0.6782818226684426,0.5619443866335436,0.4483578933315815,0.3710810802809228,0.3343535567113205,0.27734510035735416,0.2648034523474514,0.2870480602774228,0.28769392367615443,0.29756937740554323,0.3025347831863747,0.28992574653745096,0.28550259900484876,0.2664634928350391,0.30078641044973486,0.4124844980004838,0.5289300752599984,0.6336844116217917,0.6596961513464927,0.5614563711196763,0.4465776112952191,0.3537977244888262,0.2617448837970675,0.15310410226622762,0.040499533879091,0.0011242596344955835,0.05891258658605869,0.1479556644776825,0.14534673836735768,0.04191344867304769,0.0010371003773135268,0.05429708559017277,0.1645317660932466,0.22002299749578813,0.14310692044867923,0.035128245241263345,0.0,0.0505553197053219,0.16174385968518723,0.23678692130685497,0.24947317483207043,0.23673841524864225,0.24082832812393318,0.231792607362711,0.20117042635506288,0.22768382368509488,0.27834951776604,0.2792274411328812,0.19000876145003054,0.1669534588225574,0.25592500364639803,0.2983580462853561,0.21320203583563546,0.16401322959797837,0.23009640738000559,0.30798442798826975,0.33213798332962274,0.3317291459786016,0.341493126698164,0.3237885555036104,0.3086598192983334,0.3063901547700494,0.26984642385729507,0.28200133728386034,0.3366105401745536,0.31491122934798166,0.22172073071529552,0.20683274974847765,0.2975928949427147,0.37187880585447064,0.29945470377534567,0.20841781991724484,0.21806086419279835,0.2950827556935043,0.32333115776054044,0.32705766453907503,0.3350929064847141,0.316307703259356,0.2774882072685061,0.24608049114248254,0.2030334041847397,0.20140447735442035,0.23979796784571783,0.27771518345569013,0.23923985567732875,0.169143550054496,0.22514142256982406,0.3310636728735703,0.38202282654784425,0.28738011808346253,0.17878870323687246,0.12367324820469805,0.1809654303165622,0.266967308694144,0.3050139292227525,0.32608558484770467,0.3678324568351201,0.3813454053069971,0.3531734932647346,0.3351818814594145,0.3076864339500409,0.28564331101817086,0.3072021953078361,0.3416337948274968,0.3306036819075169,0.23567432981075487,0.1855837947549086,0.2662278318953437,0.3750912853054629,0.4407265158148508,0.35829351585599656,0.2450085291325459,0.16037418283200888,0.18898929002783604,0.27887938165027104,0.3498150203924342,0.38871166308923777,0.4203154207604787,0.45423472452114244,0.4411553126122152,0.3932956752228718,0.3701891876477521,0.3480386148492707,0.34622748194668396,0.365088367945529,0.3505166644052824,0.2612661743885212,0.18334826145782368,0.22703731737978106,0.32224653027638994,0.2837301676968462,0.16911319738265473,0.07572571625548874,0.0674732331387482,0.15768325636485048,0.2528528023212837,0.2904462281272078,0.3163500914549606,0.3395478433744519,0.3266455969014579,0.28964371117145027,0.2890051042029633,0.26994468718017983,0.24198528693975008,HB
0.36183390035303176,0.3467003341829942,0.342250820930007,0.35152858075630133,0.34687505733150314,0.3545814640597311,0.34567579496225864,0.3441067824946289,0.3281528043229307,0.2981039301220265,0.26260439190279494,0.2132174185136093,0.16293437907421437,0.1356898682055805,0.16417228698540098,0.19672098044135455,0.23906118649590846,0.2905366472478197,0.3273143226024364,0.37150397690603554,0.43495101988589013,0.4995442634839309,0.5661007900627968,0.6268749177310575,0.690830272878447,0.7465258360179541,0.7408054581134846,0.6812512857414277,0.6170358336025366,0.5511497386737263,0.48610478447781547,0.4316094693631609,0.3777474669385843,0.3219051954670178,0.2639313262761591,0.21372605567892955,0.15748720523062465,0.10180488107393781,0.051765059142704795,0.053685453836361585,0.0971771168308424,0.1453588240732695,0.1915865373895591,0.23107072520293936,0.2660282800164053,0.32721542865866393,0.3998958329922966,0.4672358496670157,0.5373619522761617,0.6041470048858966,0.6754619180691215,0.7425283113870245,0.8138851733320593,0.8847749289192282,0.9514871261654247,1.0000000000000002,0.98064211780358,0.9163536699956445,0.8482880994550739,0.7784584965771455,0.7097139770862351,0.6405904844255028,0.5721269147545993,0.5032140006383068,0.43697566845657265,0.376224397532817,0.3452126351771494,0.33496735018650603,0.34776441301356176,0.3493150927480366,0.3296211238322475,0.2989368670533077,0.29069584439984464,0.3124497108433908,0.3203325416769758,0.321549894490327,0.31830414143533026,0.3522589155308813,0.4081125035033186,0.40862081575646925,0.35439587638532233,0.3161140224265979,0.3461451793732262,0.35907661051147155,0.3524958900305968,0.3356948064848708,0.31891970818397786,0.32270219891060026,0.3419114361810094,0.33659448286970717,0.30665568712462576,0.26546383384994865,0.27773976815615686,0.2737137056970804,0.25886835760407845,0.305452314738369,0.3226010568028783,0.31663698087121284,0.32799731250020336,0.33486282445272364,0.3263428092559415,0.31186211862198143,0.3098506401304102,0.28303181383253206,0.2534943309362081,0.26682490216138044,0.28897672922622064,0.29670904288473054,0.29388907724157765,0.27204709041558606,0.30634039489666653,0.34377469902238555,0.3222687879582997,0.29771044882586706,0.30077057989896216,0.29333632938675636,0.2942342109203204,0.3085150580425282,0.34714333537888176,0.3724046184758105,0.3886996665548108,0.42764825522237615,0.44692519816669196,0.4515894369452085,0.4353981392239523,0.40576575011275073,0.3700463509374452,0.3624249723363344,0.39140539325963797,0.41183908068016195,0.41231554408502435,0.3891219981787324,0.35225788586426776,0.33260973706384145,0.29650617622512065,0.26382444990293763,0.25712672140442305,0.25780857649876543,0.2634169068574779,0.23746680894582584,0.18701488145824063,0.19670896549710637,0.2556959773067804,0.27487389579527544,0.22687622669757923,0.21976253847437888,0.24903745023396784,0.25439808886472015,0.24240581014477547,0.22059071361007088,0.22184914101187925,0.25137088108603445,0.277603865969275,0.276478458563868,0.28665666690357483,0.3022899537678654,0.2889200276340609,0.28021874348196696,0.2898259293754568,0.2552365213485661,0.19464541724967388,0.1444100918238207,0.16405125520241226,0.1993172937822545,0.21455340916652954,0.26218140167258275,0.30093020533304027,0.2990663426310527,0.2856954365469697,0.2870043680551826,0.3043221742593878,0.32215585084816567,0.32365315138205153,0.3014859177340794,0.24439880627751442,0.19701232871172203,0.21852589050623816,0.2868662187879336,0.3341887726706487,0.29477172688673736,0.2656401069464376,0.2898733168406491,0.2894423519278544,0.27360827790259346,0.2631763725774172,0.2468267428348483,0.2702205632455037,0.3037460796359379,0.3174892114866752,0.30707149918384435,0.30280778764619276,0.31993870936393054,0.36815541710725075,0.4287666211925152,0.4973579844920837,0.5706860567247161,0.6426969418209982,0.7094827451589993,0.7816199690363383,0.8453179215589082,0.90127567317581,0.9272478658506167,0.8704425755023883,0.8032101357712687,0.7314579802113439,0.6647123892473776,0.5928727332533585,0.5257256741106873,0.45509927939333683,0.38808734902383124,0.31926460372577226,0.2589060045235285,0.21650261306764906,0.18228158451896448,0.13689485030514947,0.08585555792207278,0.03971620543723264,0.0,0.005983583709630036,0.05244819383545196,0.10804286372608218,0.16419697709601455,0.22058742148172872,0.272531532393828,0.3284569238159134,0.3843558640613862,0.4364717211291951,0.4950566581443898,0.5652139097746276,0.6330898612535074,0.6554694492416497,0.6013627943361701,0.5380375484993991,0.47210548555058063,0.40956727515489244,0.3494543093316216,0.30583308041824564,0.2667402082372863,0.21676640407907888,0.17637563362031905,0.1420933722411355,0.10328447607165803,0.09410592992001221,0.12894198355200626,0.1816552939537388,0.23409327330984753,0.2685253179914049,0.29833262759002044,0.30809047511987364,0.3125519434837236,0.316362775367228,0.31512227881513444,0.31110419034885783,0.3125475205406869,0.32502906760886674,HB
0.8672855079067698,0.9056285125410399,0.8445952725654622,0.731330392670122,0.6126307642989439,0.5270375891183963,0.5978865798495727,0.7140288087820634,0.8314684687820044,0.9367322075248925,1.0,0.9385583577983745,0.8750470037595797,0.8115092978420444,0.7693736043282646,0.8092678224663188,0.8571850373390353,0.8776580588011473,0.8748938209093802,0.8670754601816841,0.847132803236323,0.8201163858009788,0.7834811168343707,0.8075859775655574,0.845427809378871,0.8764853509390509,0.8869813536305977,0.882545803217551,0.8895543082310033,0.90694084912103,0.8521691559661639,0.7501086075658852,0.6328526732977879,0.5105632779975022,0.5003764041322634,0.6151810789530923,0.7312397223309781,0.8473223763943714,0.9455224976135419,0.92024394664015,0.855583967908121,0.80751542528811,0.7339340615108774,0.7305220071633487,0.7889469985664501,0.8459640028114719,0.8701955692515244,0.8638899502784811,0.8432495813465977,0.8294889344601102,0.818086778795617,0.8080922444860197,0.8491651850112172,0.8962058820764396,0.9216457159945057,0.9107370585728929,0.91095089733806,0.9254127786386248,0.9355194402320732,0.8428744766329714,0.7251702429705249,0.6055062975281502,0.5633032288955007,0.6698955064009744,0.7902364788089558,0.9058661496745031,0.9623510056070712,0.9156093773567524,0.8561861500688721,0.7828004757211051,0.7523539651207303,0.8030422364341696,0.8475220207983871,0.8589631562066584,0.8389623737352552,0.8114038541366702,0.8076939716939582,0.793766485894063,0.7633637672372,0.7424125389792797,0.776757056800816,0.8225295013498499,0.8519547050562086,0.8518556660890155,0.8660711775939105,0.888094469121242,0.9206343168207951,0.8497565700124174,0.7347863731833679,0.6118419097522043,0.5254764687252274,0.5947183423711322,0.7224893930490941,0.8428837999116641,0.9187456841186963,0.9033414469616887,0.8475015282104685,0.7810567481129178,0.73728463483268,0.7739482208878687,0.825986614231915,0.8657583411238736,0.871137495561344,0.855611574620617,0.8350633856116669,0.7968958908066721,0.7559103543249499,0.7709712216492708,0.815138013436175,0.8415255857766635,0.8044903269395376,0.7549937541255392,0.7191135042222441,0.687946089520183,0.6492740712000331,0.5630775230985852,0.4393214264301406,0.3732043572655708,0.40325414815036664,0.5173261509193168,0.6235883165777656,0.5922365933130318,0.4699938384470115,0.38018887378134325,0.37994511321325897,0.46933784645800625,0.5932609852442186,0.6779066736092423,0.7225858224207129,0.7585294899752042,0.7654713549441188,0.7663331784975869,0.7349303759210155,0.6829315083647964,0.6426730345464953,0.6391570316014743,0.7055329464754858,0.7535648264717163,0.7961447676772573,0.8082021918539417,0.6956235522348879,0.5759481025635456,0.453392501017833,0.3269320613953277,0.20982602553791763,0.08474111757859015,0.0,0.05226189400696857,0.17225055039511838,0.2893906114561968,0.4154677000253746,0.53303553517246,0.6571400979177677,0.7673274679175961,0.785032125392596,0.7505768174618468,0.7488317946273431,0.7432941530750043,0.7192420124732775,0.6660862846191504,0.6341627513648853,0.6519326995162156,0.6890336157989831,0.7058919597318734,0.706909428734495,0.7289061453685335,0.7541368494250569,0.7436677375502319,0.6981106866909816,0.6625815794808618,0.7009258730686323,0.7746072379576847,0.8054483966944073,0.8604593285590862,0.8040299802005726,0.687282213612213,0.5632842566922207,0.44261260051746687,0.3210861139151886,0.19424041361898414,0.09675477953793288,0.12243835712102502,0.23817093543999945,0.3557825328566886,0.47974923392914537,0.5972373721770112,0.7192844630665864,0.807941295435914,0.8004597364170629,0.7991218952618149,0.8086839950660458,0.8225143880567476,0.793106761091694,0.7382330520872342,0.6965923188066281,0.711115171634999,0.7382689583586788,0.7626950255484046,0.7630016380082969,0.7653738035466242,0.7322878917896336,0.6750996162613445,0.6135289065467799,0.6144322265192401,0.6891137293694767,0.7462947970213918,0.786923545687694,0.7948248507857842,0.6913333720221848,0.5740614119820546,0.45128946785227164,0.3225392567034251,0.19388639227465632,0.08451475090877869,0.0964998692799961,0.20643415043229885,0.326166208419441,0.448030956606559,0.5748586139967182,0.6915113647900952,0.7796563637675651,0.7662443224175806,0.7689307792197471,0.7773131812278109,0.7729378181070583,0.7444575207924529,0.7008950064492141,0.674717793215327,0.7167553842142449,0.7460802902794024,0.7624657477589194,0.775590948378976,0.7772074613510185,0.7624736023006111,0.7128346117989701,0.6813784434891685,0.6709062292177683,0.7392173210323238,0.7943260722552727,0.8109948667084441,0.7429154374718827,0.6230294268077641,0.5022405743720295,0.37367409678596664,0.24972064361613056,0.13123704801637381,0.015985085608182903,0.012120224672344415,0.11922068260717844,0.23902997824498717,0.36489820176495025,0.48147958386825573,0.5982594653205977,0.7110263582150731,0.755962725518275,HB
0.43728671303533506,0.46845579005921767,0.4925341548206088,0.503746506370732,0.5040421044636578,0.5060003190495661,0.5126306404061549,0.518015577648991,0.5288613548381527,0.5253899131980928,0.5377572605120129,0.6206648667599999,0.7245602866421006,0.8278388816263571,0.937972436233188,0.9982253767332274,0.940951788026779,0.8402934306650343,0.7273763152354928,0.6148198273806615,0.5022686377952605,0.5005455004002819,0.5444952436247181,0.5443105993814039,0.5636744368097792,0.554522474912257,0.5068399431184227,0.4800891881387055,0.5059705593267338,0.5350837955605012,0.5578270550985485,0.5746350457020641,0.5820789171025944,0.5629132721068326,0.5736245089986376,0.5628225017937569,0.5589209664072907,0.5634676411420703,0.6210746613165536,0.7156416843498747,0.8290214169302548,0.9401350012766976,1.0,0.9472271988641672,0.8512233363481667,0.7406558880375704,0.6280295464761019,0.5547546912632519,0.5824427286453764,0.5870423062396677,0.5830377039444579,0.5747076112500871,0.5289919030344823,0.4851220595802541,0.4946579133694189,0.4945409360415147,0.5169389488595431,0.5370855560368155,0.5263803132558156,0.4955029723034521,0.4856873917355009,0.47690011423383716,0.4742611083815671,0.4739881214640964,0.5002302160971452,0.5823831559848647,0.6855860699441001,0.7905400023708107,0.8335162965105436,0.7716819725308843,0.6743798881390903,0.5553023139424522,0.46308712191071777,0.48460088339019425,0.5122281283398573,0.5119985184416249,0.5111451484327909,0.470725780669913,0.4613489460618716,0.5099057502462996,0.5343550840067124,0.5588182859991653,0.5649620945687279,0.5431025275302708,0.5325234076460892,0.5613022105855339,0.5525066781632546,0.5519832648757665,0.5408211719184997,0.5309343360442194,0.566518767925476,0.6643331905956176,0.7772357001366452,0.8727775665964033,0.8640928696458334,0.7756798464675789,0.669129995909338,0.5605052835118585,0.44877055192218895,0.42324524669551167,0.43442041193364567,0.46389152773940845,0.5028467660646041,0.4907353059624775,0.4481788340394419,0.43036434289494396,0.46920998948036274,0.4960979265934058,0.4946570504422767,0.47547942476252913,0.4619618324604815,0.4329391861819518,0.42571286360064153,0.42445355187346756,0.43556715387561873,0.4309919847907464,0.3901398427952709,0.3522631780273833,0.29367261287367485,0.1790428927879999,0.06140995630718393,0.0,0.015759886256050848,0.10409740984599347,0.2250897154978202,0.3222818771333853,0.36188508623593796,0.3536871009737892,0.31798293383381315,0.21928490225995478,0.09840793085450938,0.012642437803378481,0.0009091319723100177,0.051910945067775494,0.16666390749800497,0.28324736389198346,0.3269042253456682,0.2471965509159837,0.12645636873799715,0.026310829326174456,0.005081361971575937,0.04448010429308491,0.1562183951406113,0.27446483096866947,0.33669713843209426,0.36220804179524446,0.37353000412144644,0.4052615781367561,0.43174835124777466,0.43636114856405683,0.4064570711370554,0.3530884636750362,0.35668974346672,0.4005643551050446,0.42926450947209016,0.403940817920617,0.36608303600483927,0.34161737510763146,0.25471517552566825,0.18293453853451203,0.22412648701436888,0.33472453773015065,0.44294704461571266,0.5477920187583312,0.528187318725811,0.4593245444903684,0.45704332097150324,0.4768419297162949,0.48555061850509995,0.4859522330548196,0.48384228640484395,0.4629565297667577,0.47934684398285654,0.4956525329168948,0.48225354833619694,0.4552019837934105,0.4120231286199121,0.3941710349608982,0.42591113903553923,0.44639707007320917,0.44088786878063235,0.40981535278920855,0.3232318103303169,0.24331048610305395,0.27621455336681855,0.3801879374955557,0.49487159237989475,0.5940730244707031,0.5815185829104648,0.49520576790023796,0.42731137151962306,0.4062716961024697,0.4066067007295162,0.42001397493691783,0.42373660958794535,0.4336812493063249,0.46181857569597895,0.46902203140172505,0.4506888854321547,0.4334075162793227,0.4225366343337176,0.42805861164751047,0.46774515342818956,0.5051229699643875,0.523605187847374,0.5188616964561481,0.44876016670734264,0.33969952496163636,0.2970548636201924,0.36849832125064674,0.4786066946017651,0.5916711291168295,0.7056585734258825,0.7730255450219286,0.7051962258881748,0.6090742481673299,0.5240938203500836,0.4840758140756156,0.4910880630060812,0.49832450228804115,0.5115357969351177,0.5052196491708214,0.5125108594656016,0.5094584899983898,0.487181577452954,0.4626833310288472,0.435709723412828,0.415761628984606,0.4387694117658265,0.4808098110205199,0.48875202864108314,0.4892475115466408,0.4429608687562139,0.34532036412183276,0.2663758029800056,0.2805436467214846,0.3839922118026369,0.4941675483084098,0.6156861327077703,0.7341412196953749,0.7603216503676369,0.6866720905582988,0.5935260012017576,0.5045031982742514,0.46622518618281283,0.46937133125532027,0.4627448040209323,0.45954262685789793,0.4477162155899257,0.44936305828264755,0.44883736281850783,0.44000017749766807,0.4232187140468815,0.3976851740774796,0.3516846009150423,HB
0.19217074683223556,0.19751241927169683,0.22121847760184998,0.17060871202142636,0.09345824929187718,0.09882859590461868,0.17065658975631837,0.22740774050188195,0.30856362838972995,0.4124528528040219,0.5219055368178598,0.6359039136399038,0.7470375215406715,0.8549202754257139,0.9511502804748777,0.940339178805377,0.8402846321604656,0.7298604754805815,0.6179385296589337,0.5027207699236806,0.38738111650395757,0.2723209399375428,0.1848510964299903,0.22182645419686442,0.248422076634363,0.20422438605050264,0.1905578331689508,0.19305007090319903,0.12941778704056284,0.07561384216578282,0.12185264144218744,0.19529674685284615,0.2569278651319671,0.34843342549937906,0.4554329352695512,0.5627674488558452,0.6633700707691264,0.7710944623264555,0.8793527292322794,0.9735415942370633,0.9555079718511232,0.8526008530634013,0.7415642562949574,0.6301866252417474,0.5178154663372352,0.40368576072041873,0.293692629956428,0.21198975137558906,0.24969493322263014,0.2638632757259054,0.22485548711959757,0.23920367556757283,0.23902488880468642,0.1743794959508118,0.11820414786218336,0.1618133923346774,0.22207366314346477,0.28292882744256675,0.3805959616109331,0.4901440271520989,0.5995163191026633,0.7105472853254231,0.8248322277511277,0.9304200625397443,1.0,0.9524271223202792,0.8464620119119592,0.7356148473787238,0.6229848105812608,0.5118695252416046,0.3970777047160645,0.2895277886572474,0.2501012142892809,0.2612823271196534,0.2181491298948668,0.218193934514481,0.2330205751680372,0.17043752381883226,0.10347209910741118,0.1364497402109368,0.1956692979114456,0.25752560206540953,0.35944614658065843,0.46934413461761193,0.5806155486061111,0.6900206778855629,0.7987825442278365,0.9069254792925143,0.9985100294756664,0.9751959874775347,0.8698850119830792,0.7548837909564658,0.64067464491091,0.530283791876168,0.4158426901618768,0.3023158264029926,0.1978847365544154,0.18228141808011133,0.2294287952063725,0.20006080080025312,0.16372999141646893,0.184142238860747,0.14268437982085302,0.068875434670986,0.07015103082185592,0.1372087052486477,0.19583185906230782,0.282974360686135,0.38936719759231253,0.4982564478676905,0.6078040855441023,0.7176565555431271,0.8265454726881352,0.9255218140144115,0.9225498382378556,0.8217727396445369,0.7113839084082771,0.5990400710057691,0.4906581789000779,0.38811550532658545,0.27729741906239114,0.18060693151419427,0.12531371191150686,0.1643747484212803,0.16371188960563554,0.1716310701614634,0.12666581163710888,0.10951559940605704,0.1669800703788742,0.12203454178446704,0.05529350069329453,0.04352682393931473,0.08553909411664873,0.07585518149631487,0.08876827405381937,0.06833475786726051,0.0,0.05299944438405768,0.16387455595456335,0.2767167734847167,0.37984794770297126,0.4892500860197646,0.6042887620063815,0.7191126910031027,0.7967005185787597,0.733886681012609,0.6257738544413765,0.5166485489289032,0.4068044986586026,0.2991406912803538,0.20386270455086852,0.1407385433658208,0.07436177628162421,0.004997653712407124,0.020789242714763234,0.09909526953435499,0.14957585499198212,0.12530536086572686,0.15919193883698357,0.1908505710955417,0.12828927662398226,0.06531793303817723,0.13173718292428216,0.24182210755727063,0.3546376398868165,0.4692820777760607,0.5797707826244833,0.6932258845542538,0.7962911180919652,0.798904458095743,0.6985176485315916,0.5873917785560046,0.47743215474993383,0.36908884345906245,0.26734373097345543,0.1873157199303479,0.14213514875686073,0.0783570880086647,0.07565214969221745,0.15391585525831064,0.20716936044681145,0.17207034961550294,0.18174162889251222,0.22339361000000468,0.1761454992260727,0.094997738570614,0.12377706549121803,0.23003458080456007,0.342603188748835,0.4577791523572994,0.569901528258782,0.6815315453939326,0.7901459042994663,0.8272263097245762,0.7373473344788632,0.627873243424516,0.5175490771826554,0.40715720089121743,0.29963258012965466,0.2186827781526579,0.16215915969023964,0.09468923323637402,0.07812594744736934,0.14811268777184816,0.2075993706339725,0.18817967682644765,0.18866772205379068,0.2280560772097413,0.1806498076890961,0.1065930087021747,0.15179717503989787,0.262838320141318,0.3732156471451984,0.48749010281741056,0.5992059491843005,0.7111117176133779,0.7958971680969109,0.7425077350253799,0.6374542569364299,0.5355276200935746,0.42710548150293404,0.32188380297119257,0.23332048092212698,0.17385684892672515,0.09934599703639369,0.04572728540064108,0.08723244273351982,0.15732646057310928,0.15421563751906864,0.15732203231967112,0.20703920322246527,0.19287538155783146,0.10352150192729193,0.05092398476807103,0.11996786861051856,0.2310350216990944,0.34562103871241234,0.4560845477948787,0.5696940300483733,0.680602057061485,0.7845657674244739,0.7861653758549616,0.6928476819384335,0.5836137727834732,0.4731619462087957,0.3671104536822687,0.27169829408717816,0.19468619831449097,0.1395414154489063,0.06650728562978148,0.0488759189532636,0.11966263777496922,0.18202796362385,0.1647773855540553,0.1388124819091079,HB
0.5793014481579544,0.5116150674073308,0.45885117752124716,0.5015140711166057,0.5641544275220425,0.5804488402545473,0.6066020666614906,0.5974669427963915,0.5753818267503323,0.5394010806156744,0.4705373732756639,0.4714687782920919,0.5289954650768833,0.6051622221934627,0.6847218290944861,0.7371241105134811,0.7614446337943637,0.7968072593018687,0.8723125005757586,0.9900053513496561,1.0,0.9051636026337473,0.8171676832939525,0.7125130261669423,0.7256910529047951,0.7926384372258459,0.7886248809538108,0.7401538486609813,0.6767186208135065,0.6036592287290299,0.6076388733530984,0.6639112058708672,0.6681499460300793,0.652892393766725,0.6221435446349615,0.6211480985561186,0.5839656151249102,0.525063659443699,0.5035645838048741,0.5624904511181095,0.6313709330534714,0.671245017925644,0.7005001911273427,0.7180228403855762,0.748085360140974,0.835683074072151,0.9411273140890755,0.9704193084286694,0.8854775630413942,0.7759878135139924,0.6566061360710402,0.6153731908073072,0.68127375658137,0.6665549941479414,0.6494227396934553,0.6215613466606706,0.5438026616745644,0.5586169253309561,0.6117990526349297,0.6513673927478774,0.6490665413317545,0.6268224469019428,0.6020304346847745,0.5702995009523635,0.5139667494191773,0.48582552991170047,0.5484305070375495,0.6257023465410008,0.6670707950798929,0.6921605706687748,0.7427217832878514,0.7813313009551015,0.8539930159427906,0.953537145322306,0.9358026159087145,0.8270290415420538,0.7189200698515306,0.6210492431844168,0.6363818166578783,0.7160779018736094,0.7077247616746227,0.6586441744095719,0.5884304763812711,0.4996016304227968,0.4275839022182235,0.48094160656223517,0.5498822335347855,0.5587497975019535,0.5526384423223418,0.5317688001419403,0.5189742184597534,0.4605793016332078,0.3898244447667807,0.3305215788874687,0.37352182985133364,0.44214289719169786,0.5200847069924124,0.5827235638575079,0.6068183710423809,0.6119940390170622,0.6738202504956798,0.7668051629507509,0.8247653546960296,0.7484357090938492,0.6343080394907421,0.5507012419548962,0.573651053645202,0.6292510033180796,0.6047348431449766,0.5531600423060925,0.5156433755174099,0.5171897845701041,0.5668541519464134,0.5480808635208834,0.4760820490688258,0.47820068693025064,0.46066242419317716,0.4779182684311647,0.4905098772475487,0.42565447027374237,0.38688674858210437,0.40831588390480755,0.3941374907938413,0.32325282072650774,0.2077437496927974,0.07303670863393297,0.0,0.016538934342809064,0.11632750116264479,0.22827553844871362,0.26567380037666855,0.16472663016153222,0.04110158696503374,0.005758086666066031,0.05173923526382662,0.18070951843454974,0.31003804936262425,0.3523587218168953,0.24593540178006235,0.10731495476312558,0.014580600947189382,0.008896812327964021,0.08241650912406451,0.2188582274571842,0.34095113678857025,0.376471270968163,0.37158783807817164,0.4291403450050155,0.45620754138533703,0.4088107995838919,0.3933289180296251,0.42540076517558756,0.4878432705710911,0.5394990134367048,0.5124942899329925,0.413222019912181,0.3545270042710529,0.4122240485208608,0.5149001872690291,0.6011394218521167,0.5937222073689119,0.5402390243453983,0.524209325559716,0.4926459248996098,0.4652070318087409,0.3893028255080444,0.3118340508095896,0.2461931175882075,0.26543624280373734,0.3295396489431579,0.3972004513671785,0.4278489534778842,0.4576131132480139,0.4611125176718356,0.45021258584429713,0.4151808568430444,0.3343328591685717,0.32530245477529984,0.37309849215950974,0.4739948290095879,0.5496771276691019,0.595929607349416,0.5437667961485055,0.46080658863319623,0.4442753380925146,0.5453006961039706,0.6626167444117392,0.7230094394793154,0.6658958396826629,0.6285339997095374,0.6016270412421281,0.5714310286161557,0.5034560785002711,0.42796322644965423,0.389099020554188,0.4168956623586286,0.4806195841927461,0.5179760741320991,0.5428006250775477,0.5521658684054813,0.5337237633992018,0.5222513595491822,0.46054350609372197,0.43180021859160034,0.4667820996197496,0.539339701477874,0.5620563010765198,0.5918647491178599,0.5301953451749379,0.49625318927930095,0.5774402182050946,0.703779387118916,0.7482639155268163,0.6960665757543678,0.6452360747567432,0.6080036661018213,0.5772489867256922,0.5207359899569086,0.4511773579688292,0.40414240997586903,0.4210220081104117,0.4755839327015856,0.5208894834572302,0.5401475763180228,0.5701219620433609,0.582948161265723,0.53661010415771,0.48156682119040006,0.5044680919834339,0.579189723156746,0.6483096629803784,0.6991469158424906,0.6519051547958137,0.5964858639289372,0.6501635014280116,0.7468267579453998,0.7625799298435938,0.7073201736776626,0.6691408566234616,0.6387199511621082,0.6083322380962919,0.534701343516224,0.44429065521469324,0.380491332717277,0.3652834674655221,0.4169538430088062,0.47368305807916755,0.5006017579480164,0.49185151947765604,0.48628205319994233,0.4509776099743563,0.37271940038924845,0.3473661384399689,0.39452705057309734,0.45965937570997717,HB
0.3131427051130873,0.27756813393269053,0.24227322434850262,0.29050943244457517,0.33474644456386815,0.31353485120997227,0.2782705320481511,0.3095182517150741,0.36702827005984173,0.4260861604679278,0.4432672323013873,0.44732908162805507,0.5016009800838652,0.6002655232991907,0.696900295718472,0.8045923280860798,0.9145582475508196,0.9664264648564387,0.8932748005433637,0.7789568006376151,0.6558035748572479,0.5340210214663494,0.4214724678965729,0.33129071052187054,0.3402128633425068,0.3292756707399882,0.2917431065231033,0.3236811560526591,0.35229984588326,0.3269856660481947,0.2991784056653175,0.34073148501864226,0.4099465185358053,0.46646103092858593,0.476274427176518,0.4556582075607729,0.5016406545206376,0.5994379952458211,0.7103907459875429,0.822440687599822,0.9230117091198748,0.9368293559410017,0.8359064226623028,0.7323552867701031,0.6466374268831652,0.5459408856450658,0.425527101564241,0.32873317901470345,0.30895700614876476,0.29025747440811656,0.23949596988247435,0.24007894680502662,0.2908114897126024,0.3086336420030087,0.27934544175679776,0.2801516979634948,0.339242680849263,0.40365666421865476,0.4393988089997529,0.44715568281799656,0.4833652838562863,0.5669810042379313,0.6733218972554138,0.7867545835813103,0.8992198460032992,0.9999999999999998,0.9960407496460972,0.8953830750289578,0.7833848448256713,0.6640214743050972,0.5509518868030223,0.43131907249494916,0.346989700775566,0.3412601717147836,0.31527947920064237,0.26773123892156536,0.2858031464010733,0.3177368466492936,0.286912714166075,0.24034185350418436,0.2583206950647148,0.325392361154097,0.3879524115933022,0.4332429280624275,0.4498151923254794,0.48610698920761153,0.5694226899515227,0.6782261790177604,0.794434578173034,0.9047385273754467,0.9771496551191527,0.9179416168798291,0.8078544098604443,0.6916708722792457,0.5783453509100378,0.45851523779413594,0.3478306938161604,0.3025208580874297,0.3214680606918192,0.29133351764556914,0.2524398354462136,0.29153248986851765,0.3332083635355032,0.3143830205129483,0.2762522152788185,0.3001460559708595,0.3630819222571675,0.4224872772068846,0.464378623499196,0.47170040624690857,0.5059045757891989,0.5950021983292324,0.7050251092215178,0.820379715454419,0.9380652614213874,0.9934495217032693,0.9211568980246663,0.8122588805426505,0.6964917649688089,0.5871037931421126,0.487967471209126,0.37485722600041593,0.3328660982651013,0.3557677746435959,0.3235007555885321,0.2809316637114849,0.30868486187679545,0.2799665388497925,0.18314045835232684,0.06480560808001568,0.0014443754613617799,0.03527527367986205,0.14306512560315077,0.2169732779063256,0.16426110994695597,0.05071382239073885,0.0,0.03752149614726119,0.14826473780052285,0.24856684774803317,0.3005541474361795,0.2778960769708301,0.22830028925621648,0.11974146138185016,0.021405522010792266,0.009909863361084792,0.08851237238655263,0.2027763517153207,0.2541893961356594,0.31091478663535965,0.3883769192551012,0.4788547939541845,0.588079519783882,0.7085534111833598,0.7841476055479177,0.7114803651583494,0.5999972951567638,0.4971616681841342,0.4376417787033289,0.42503247980343084,0.39857262425422335,0.3339785434853304,0.27408651649856375,0.22662593687657684,0.2386742332808678,0.27984773309509303,0.2646234204033775,0.20260457705561996,0.20704946726084406,0.25560479574490436,0.26134359591976986,0.24029285856876892,0.30619915203533465,0.4145339984902534,0.5335360870423493,0.6145111717093277,0.5573991944432193,0.4703945445711091,0.420917151483412,0.40241073152256823,0.3704848834200909,0.3126231038470644,0.24586822960539867,0.18891586073451205,0.19639985919556868,0.24542218251847436,0.2623761968536893,0.21515781297758863,0.22190567493770819,0.2752863863075443,0.29329650182240274,0.2723496180042788,0.327798613000682,0.43065107479578235,0.5454023975779647,0.6623421451454166,0.752438100583052,0.6887586558123611,0.5787997017670989,0.4845651004573559,0.4247903367857895,0.40090161904323085,0.3922169907001838,0.3396777424274535,0.2743733250409701,0.21842218955093373,0.2186408329062106,0.2562485345894936,0.24557294400577878,0.18733976928558094,0.17461363596560253,0.22351770084505396,0.25519224727465173,0.23974054966581293,0.2947116992299079,0.4089933385477831,0.5280236330050381,0.6420135826302309,0.7397313975434152,0.690948271596248,0.5816687946160306,0.4835947272275536,0.41955488736160196,0.40757608044725147,0.43496778145858905,0.40728457024139986,0.34175545282812236,0.2757116260928736,0.24746443019765585,0.27709618403326863,0.3013958536977419,0.25812479939067745,0.23850749073429323,0.2810502888592763,0.29289416682437674,0.2652143309100332,0.3269544631522494,0.4365031746735022,0.5540134226731797,0.6609040689815686,0.6442724802781872,0.5390248686381203,0.44952422633546285,0.40425409441317073,0.39651478308267074,0.37123829616075965,0.30708250355535793,0.2518591693627077,0.2264324084352387,0.2591394264155993,0.28041140761650873,0.22670170895396224,0.18579994568714198,0.2189584928058126,0.26359065023542594,HB
0.7863898295608438,0.6960771370611782,0.5701012201664462,0.4413223968589173,0.3282070698546984,0.35701998155318515,0.36908128726105405,0.3462482796080595,0.29926584231394493,0.30797749774642336,0.3663475784229715,0.3550161580567073,0.3750406354707998,0.4151149153654887,0.4704641315662599,0.432557138425234,0.42760105395222947,0.35378522358368203,0.25886161766157745,0.24417197779715538,0.31315748051896986,0.32637490731885643,0.3444613669522796,0.32084218838818845,0.3024781014676243,0.365062412408625,0.4937204066006151,0.6240569241894383,0.7665487542688858,0.8943449302386028,1.0,0.9567723822866983,0.8295015545175906,0.6960456886834843,0.5567289495315739,0.428463437755918,0.2960518246899859,0.19766801491840846,0.204310516639151,0.22201590844867392,0.20113697301603883,0.19352304423760902,0.17458393670214223,0.11868125562847087,0.08382973463502186,0.14919626573662192,0.19965975437060735,0.21095803571710192,0.21568059177945953,0.23400455097911577,0.19137804170336015,0.14938510814601003,0.11797836040021803,0.1623443111599734,0.22189110457377437,0.31080976255538806,0.4286450678046707,0.5707439856438699,0.7089578031049166,0.8304290235777572,0.8731490965331501,0.7719150373349262,0.6450828801346118,0.5059526071285902,0.3794773358985335,0.26075331892130205,0.2330011331455628,0.24140389108552318,0.20791834024875122,0.2153653527409949,0.26179293134006176,0.2945016624513146,0.2874966931475469,0.3019972482856743,0.275768538161659,0.22953476400250228,0.2171989727407806,0.2616813811662122,0.292990520589302,0.3242294060216304,0.3154079804762273,0.2970394158311582,0.267108913588078,0.2799655467066726,0.3308194412746621,0.3703520261061226,0.36243661720194487,0.32233492215765613,0.299871765994177,0.29112695334964345,0.26433389578710065,0.25302915537885173,0.28214140358704176,0.26850806263051075,0.30416795241475736,0.42241430831250915,0.5387727156765472,0.6475344338128393,0.7792555006105646,0.8696796016474417,0.8290387492738329,0.6976458239512313,0.5533287146338157,0.41763407665686714,0.29176167949551735,0.20930862392590432,0.19626016491364418,0.24237425635902277,0.29745206747560715,0.32986743644224337,0.33363660289785235,0.29577591013131377,0.2617765648889625,0.21427128810882534,0.22311498987522338,0.2704366338648656,0.32997947463771293,0.38235066717508603,0.36078908288717093,0.31918405812841977,0.3008585945158533,0.2549825434350881,0.2534874668244962,0.3077785085328606,0.3452141788317098,0.34266058896059937,0.42291010383974736,0.5483727923575925,0.6835063140185591,0.805349462777027,0.8527377432504064,0.766730641145462,0.6377855303209339,0.5088464437995635,0.38851530067663687,0.29586160384636484,0.2753255390973717,0.2990731379097822,0.29874403317506815,0.277880176332292,0.2213047448869312,0.2126649245920773,0.2044977602707756,0.20829205001935813,0.16918888375692465,0.16941699114694053,0.21213465589696057,0.3003354644499616,0.39677946754476023,0.36466607867695666,0.2721565718107666,0.25078396282712045,0.24407897224602237,0.18878091919839735,0.17269583638728747,0.20402183409962849,0.23679936879654218,0.25147586580673,0.2671169531987019,0.21918047702114718,0.16805353413526225,0.1184831265836932,0.13474881831704577,0.1766683235521036,0.2370038170961819,0.2598602844272926,0.2375105158426556,0.1969377199882838,0.14476450162191457,0.10809396385853498,0.11612408528839246,0.20237182627088535,0.30746331802478455,0.275029411835952,0.1838758276565331,0.17244429349005408,0.18946777232526513,0.1740446744754407,0.19317413260303562,0.21928404542254043,0.21859217732062763,0.25291329240674854,0.28104912686361905,0.2662293113636731,0.21528115481495202,0.17898554968972702,0.19931617479889985,0.23324742122533415,0.24631194739490825,0.21650960800070873,0.1886380568123136,0.13892722560529647,0.11745141309307172,0.173025265747623,0.2129624290811729,0.21750464001887826,0.20073048454276998,0.17993565129946543,0.1278347675830882,0.09613453147954143,0.1440044809953247,0.15948066951771178,0.12447637171220904,0.1379250463732138,0.24634888730503146,0.36832605865097534,0.41139798253877435,0.3026398075631085,0.19987110167090538,0.13129003457937216,0.07685263412054155,0.026522896196701673,0.059410993139886514,0.10951540034838114,0.12579324259232338,0.12618196542846638,0.11944297281207561,0.050270383409681596,0.0,0.024449118271189896,0.07279033566317317,0.09295609330407428,0.09110692481673688,0.09214536966746545,0.09549917180820744,0.0572091536847843,0.08282828495061656,0.19364843436593837,0.3209026082162758,0.41737386169303736,0.3270752335472893,0.23101520030622602,0.1969444183330893,0.22142977627364901,0.23172453576703367,0.22125484794481087,0.17256076549427402,0.12113303053372171,0.1529450164407118,0.24373812404123996,0.28970689563119434,0.3035592632682689,0.2753607975094239,0.2713623327033581,0.24340998365077082,0.18056791803933647,0.16339290853711308,0.2073853379348911,0.2550099836614499,0.28470488645476477,0.22289386713786552,0.18905364175288142,0.2770083849468459,0.3917637307947808,0.39787490488611565,HB
0.05888482678881457,0.1199055192524795,0.19669126106022639,0.2972647856164269,0.40622697968877153,0.5156018406434447,0.6185479122097673,0.7242153008365076,0.8343473127653317,0.9233123552640442,0.8969723943516644,0.7977802876088506,0.6909542284030069,0.5830120155387789,0.47087389300490623,0.3676272913773758,0.27404817564523654,0.19775283220869955,0.14754338642494547,0.0907260720431472,0.031937505786042264,0.05194267543918307,0.1145689622656264,0.18617261128982265,0.2864809841746786,0.3971826093413061,0.5080408970834133,0.6192138763207599,0.7299192825144408,0.8409602896244371,0.950136605003587,0.9999999999999999,0.9212335531505148,0.8152115092088487,0.707048388663781,0.5971908259116677,0.489421485271086,0.38533835950121553,0.2840368934463461,0.21130161554125648,0.1928406557002741,0.1388715451207182,0.0655571162977776,0.05116885328290277,0.11032500499561759,0.1800241520237399,0.2735400686348509,0.38057440078304083,0.48997459153481737,0.6000789373435765,0.7113230060000645,0.8231798382748318,0.9325580216550865,0.9609142910658738,0.8754304389812378,0.7693787766581482,0.6590190186960895,0.5467295277589431,0.4396361339537428,0.33974685155293793,0.2426930508105528,0.1638570580646671,0.16366128074562558,0.13116739668714394,0.05353824512705929,0.02555220663524116,0.07915831453267275,0.14444662922939233,0.23237548072090763,0.3387098848817448,0.4479123390752887,0.558855413430425,0.66983091969278,0.7805558731866934,0.8920893289133228,0.9903319243961034,0.9841316513420738,0.8860489624621727,0.7786555832108665,0.6703754467984421,0.5610591500617973,0.4539953260424784,0.3501659658562578,0.2540630654148278,0.20629490170034603,0.18716745633113885,0.12379836839973135,0.04923857381570451,0.05226201561629107,0.11439882830995318,0.18728269696000777,0.28180255958567113,0.3886000617502686,0.49778420870291973,0.6088070032175593,0.7250751624308779,0.837233653048325,0.9411650513799018,0.9652002626659762,0.8773296572686194,0.7692119735495796,0.6585768086337828,0.5583112154685704,0.45057212129285384,0.3443875722646771,0.2487517368765063,0.1911112522086894,0.18348811214013916,0.1263219993890895,0.04928244466239573,0.027569321558233773,0.08219950361750838,0.14745724813304262,0.24110869310467786,0.3460289676852212,0.45115006069548647,0.5536101008451476,0.6632972734339563,0.7742500761494383,0.8846231897156017,0.964142116740755,0.9168750750769817,0.8130704914774957,0.7051326359431959,0.5953875659097251,0.48622452987396036,0.378918731941834,0.28637782984051074,0.2267282065003885,0.17149132026783398,0.08550538582307177,0.10069392271366462,0.1923414384243961,0.2786104888509461,0.3749038347549424,0.4791438709577568,0.5835402265836879,0.6839482366925519,0.7911135059335158,0.8445542342785465,0.7615392858412205,0.6507687666191156,0.5397680970464335,0.4292264130120659,0.32121064791027176,0.21980493875940865,0.13658802599819053,0.0714233961271491,0.011345037088925425,0.0,0.06371993138225351,0.1346544227416172,0.1639935516515202,0.16352474193023026,0.23725015067040356,0.33297060596178907,0.44140711520736875,0.553677420877224,0.6632490840238495,0.7708204152864396,0.8527519927541328,0.8004264206214456,0.6903656290107808,0.5797536183696487,0.46998282996957486,0.35851176568244625,0.2496913484780704,0.16014466915725778,0.09119471757097963,0.02766332464797494,0.012635837718071086,0.07830012163310418,0.1507445888730895,0.1776020938799855,0.20654922858688007,0.29805386740985707,0.3966676455677708,0.5014406194653288,0.6092214273255704,0.718552683697384,0.8269685346677961,0.9160584847425987,0.8729650557917746,0.7639841287179329,0.6526222350346335,0.5410210917438562,0.43039902528815943,0.3220342829580086,0.21829149049303276,0.13194728956836455,0.0664752468021389,0.005444138054954473,0.0032327465614860884,0.07482743037784123,0.13381772631295352,0.13109767446020248,0.18578266591030157,0.28082303242967577,0.38085974891619123,0.48806557436834275,0.5967085232830901,0.7055386014749944,0.8124112471749586,0.892664761518755,0.8411329368495816,0.7314195904916431,0.6206578831055559,0.50698715074115,0.3936054493706186,0.28597533613039083,0.18924273882852194,0.11424664380599359,0.05054636019596659,0.012464680504130743,0.060889160497890615,0.13578358814558789,0.17541125126420243,0.18509231232973822,0.26463622461221037,0.36186231940719005,0.46431844108458276,0.5714162778109911,0.680706781629301,0.7917882283532441,0.8870862520972725,0.8564647423378736,0.7487941270533195,0.6376926141430966,0.5258961176820239,0.41507121529685465,0.30674656837949266,0.2040043120824061,0.12114530268325463,0.05765804707419786,0.004822088155813198,0.018834619282126375,0.08365416830660732,0.13844229183472134,0.18812367495505378,0.26974286005932624,0.36753443069105984,0.4674771574300337,0.5670929197261015,0.6746550987009888,0.7802907569154488,0.8538686648677377,0.7919006910881196,0.6786669921403387,0.5653110727756095,0.45497662059623567,0.34479250640815484,0.23893790955969785,0.14731423283224,0.08087572776298735,0.017896758599789675,HB
0.33790840907485853,0.3847560080265904,0.4362880803425617,0.4829328480821178,0.5060231132316515,0.5117289666480671,0.5510759010219108,0.6484489420460373,0.7520305454955865,0.8545833647179202,0.9444329740852733,0.9379051024959764,0.8454368282042783,0.7413490272617316,0.631714164874317,0.5258306538599014,0.4137604401922208,0.34478254448277257,0.355902068568807,0.3357596788823667,0.2851980263908307,0.27622074045011846,0.32886497548341964,0.3557935599954334,0.3408881012923839,0.3245349869579117,0.3527509720774691,0.4046194324296746,0.44832278111642987,0.46502939642788554,0.4631019588080374,0.4854938396082491,0.566418559613572,0.667033713659432,0.7737708030041972,0.8750349344172865,0.9392479981461532,0.8846605066063353,0.7794421616927782,0.6747909594797883,0.5618343139399462,0.45747112427216896,0.35918071053376055,0.317063849632524,0.3273918176372259,0.2953733602509647,0.24351541856640146,0.2561155072265735,0.30642387871965004,0.3233869635928466,0.29977570654120944,0.2782774531070369,0.31053510226513614,0.3621804409956497,0.40938446465598544,0.44235875874975417,0.45766894454963225,0.48992725683782234,0.5648300960665824,0.6633385168633712,0.7696550368505601,0.8739518470215941,0.9621865674889745,0.9477317704447183,0.8530500523381872,0.7400621536296468,0.6257702855043563,0.5207861338178854,0.412234338887953,0.3383030418423343,0.35046551112803703,0.34155833640650046,0.30411617869732055,0.26978939137634317,0.3130696590592317,0.3593286074065358,0.362165901790505,0.3335050433649869,0.320592473629671,0.36355002150472204,0.4227279900852694,0.46861867094063614,0.48822237871312746,0.4987780362345693,0.5380588729163649,0.6241535978502668,0.7261268194001422,0.8329645481527832,0.9362995886656256,1.0,0.9354825499974329,0.8325906167745036,0.727125790042439,0.6175048798470599,0.509512324168766,0.40499512313931163,0.3464662927025506,0.3658980975153576,0.35089522748588475,0.2971652082488454,0.2664330061977651,0.31819036783083154,0.36612733237774053,0.353217707041777,0.3275998055715066,0.3426169194954425,0.3915273169270521,0.4425743556605175,0.47014380585466276,0.46264191027316004,0.4679108083169843,0.5241772552246888,0.6198077465339176,0.7038836959752697,0.802719280998101,0.8986115519055189,0.9213538129715215,0.8372312366551093,0.724262778844242,0.6106358626667503,0.5062209032479221,0.39497639203276824,0.30487372987063033,0.2763539879256296,0.26854230048987837,0.28680060404454144,0.31297504238714957,0.359869797757145,0.39099359920084575,0.37743365167134657,0.3353248681026546,0.3152418141248061,0.33824565187339717,0.3133585164475954,0.2527422320581034,0.15759576555832577,0.048390687013797784,0.0,0.026748039134934398,0.1272389543161645,0.21149388782309897,0.21253871152176051,0.2281604943166986,0.2061844511704516,0.22192082293974558,0.30482152423909614,0.41006949726993414,0.5143469212203016,0.6273519004012735,0.7045819132826026,0.636746505707448,0.536069929871426,0.45431295971262786,0.4150550108482034,0.41395840261508354,0.4112227693454389,0.3741126086261586,0.3202496013123284,0.27814297720377423,0.27280992333035403,0.29534154680255575,0.29676240396417963,0.24256350254982495,0.21205598260278125,0.24653181960312498,0.30148071815007604,0.3049414293756252,0.2598481900820788,0.29190907683895784,0.38185724389011444,0.4841432974097022,0.5948473514495629,0.7031578124474804,0.7838618723062072,0.7256889100837891,0.6222113600303438,0.5201717565235517,0.46154476609358674,0.45400962035033254,0.44007263763411686,0.4130603640738326,0.3633886117527947,0.3050248028978091,0.26292714615906876,0.27429658632323983,0.30945216740690595,0.3067517035786853,0.2492872219578537,0.20934476371431376,0.24197409949393656,0.2897183953278981,0.2888469859813183,0.2534481617640627,0.3052218621318392,0.40182779191126583,0.5048475693062184,0.6183016419509526,0.716610547683775,0.6976291839827073,0.5991374727745575,0.5078991787276848,0.4412817508192668,0.4115974066653245,0.398471428400323,0.36568431035506554,0.3164012414318895,0.26262230240928286,0.22471603700215503,0.23584865740103966,0.2614602738146763,0.2537614905355374,0.19642851399796601,0.18350458717567486,0.2360969693957098,0.2716606581675607,0.25078501863977465,0.25921965361432386,0.3357379320248697,0.4372573605680805,0.5428311794806961,0.655248269272295,0.7281785822424198,0.6613981861579816,0.549552581009547,0.46155163673834565,0.41538016286934853,0.3989575712799107,0.4075753268263904,0.3853355997748107,0.34559219056916746,0.29560119975595756,0.2649275757223295,0.27816334900339523,0.30186602265298523,0.28216436876077067,0.22243254767985476,0.20142905540076006,0.2467828105331118,0.291088881156524,0.2743162061774842,0.29392281138338605,0.3742956171604197,0.4788152356531312,0.5831170363985065,0.6948670239437145,0.7447151501186178,0.6552508836572981,0.556947367088453,0.48393482443865166,0.4503889203957767,0.44467122948367255,0.42441879861658327,0.37638133144190977,0.32481656431990613,0.28048883651427525,HB
0.5282012715743285,0.48139523037984455,0.3960813112208754,0.38591190852031465,0.43868106357751824,0.45433361584245713,0.4261725990437437,0.3836798476562233,0.3219652921861682,0.23221690154589814,0.12995558244890226,0.13953046325323237,0.24652811803248031,0.36608129155048985,0.49090094813306573,0.6117997243871818,0.7281467728413626,0.816187343551011,0.9291928475894791,1.0,0.9182117772771132,0.7981846915737125,0.6695914490295838,0.5482552587348435,0.4247251197611246,0.395081008112387,0.40943033530853823,0.3984278198175688,0.36900316188935633,0.39701899021871156,0.41893875855394747,0.4188190394119711,0.44099943918780227,0.49090762243746555,0.539382237268156,0.5627928770357151,0.5288254697453132,0.49023204807840237,0.42787132141182926,0.3419527985905928,0.2431172862226556,0.22365088929398969,0.324355107877798,0.4438751731920041,0.5677468636185958,0.6866015828293777,0.7954221837051989,0.9032790823714496,0.9790120085598812,0.9186278376604333,0.8186424387148206,0.6925377463973761,0.5702751872911564,0.45459801954559653,0.4372285616261844,0.4284188242374607,0.38841578401900057,0.35689380543701743,0.3915750351090246,0.4114057189762361,0.404786074359031,0.41712909661713793,0.46794846273404556,0.5194498363991737,0.5453658001300541,0.5337029833653997,0.4952363230177603,0.4464661035296138,0.3609449914873828,0.26816211274399304,0.27509497839512775,0.37950076828958945,0.5071982355183575,0.63496128233432,0.7409577375989986,0.8441495606819118,0.9348573910013096,0.8883515751987154,0.7712429334032294,0.6462286802471482,0.5235225783713,0.4514333886539377,0.4295627031898719,0.3711537368763649,0.3089922866592021,0.2640908813041345,0.27851895136485494,0.36128050246551346,0.4006130642473562,0.4041915446121416,0.4500161139438448,0.4833373610108973,0.49022081025192676,0.45158673754365175,0.412705400117813,0.34253070060013924,0.2451014360006165,0.1666190523996156,0.22203435175025676,0.3251987295084726,0.4283567834527102,0.5464690628848943,0.6598833429692483,0.7673715187815326,0.8884650197910404,0.9958513378360743,0.976850609398662,0.8632984815189837,0.7370533368995367,0.6144477031375368,0.4848687715606341,0.4184398605727617,0.42185941753645695,0.40920487626137003,0.3736556583639139,0.3959326410035162,0.4100316335848033,0.40374852191583654,0.41848733506192204,0.4779142791069111,0.5196445746201492,0.5253565216315463,0.5007616617152744,0.4713837488132411,0.4107707615228793,0.320363352401245,0.2329231872689017,0.13668932181464521,0.07313683282382089,0.0,0.00017694035503224015,0.09529774489691345,0.22037163751024424,0.3228728773558851,0.4057087199060736,0.44402941614279046,0.4683181415609954,0.45436984392976276,0.4038518245983709,0.3510548252126564,0.347426936201491,0.3478574846234528,0.33325808505252086,0.31322650646406647,0.3496091798904728,0.36093087044834826,0.2842511765161624,0.21173214980709032,0.2720939481811273,0.38853868101799316,0.5164858857555643,0.6282802047095228,0.5905347103911902,0.47180874299843234,0.35225393454983545,0.23697727234898291,0.1389252120365838,0.09741343493123678,0.15524978007302215,0.2568958405671675,0.3443964738455132,0.3957260119061128,0.43032655306784173,0.4188120012346457,0.39293206298876004,0.353638073639031,0.3251048268155823,0.29444646984139045,0.2207684283982525,0.20066520454649384,0.2327187601945111,0.2848383952702296,0.35231406078889105,0.3912380122117116,0.339841214540646,0.2775755963232571,0.3484104852594272,0.4669250890324932,0.591806165161278,0.6563321064645797,0.5670811256810886,0.4450171346501772,0.3292060341584242,0.22200014638378107,0.17293182201092572,0.2247936126283867,0.32735354469883404,0.41040014317083484,0.45171938829613767,0.490253256575627,0.47570808445574864,0.42374936417113807,0.37482868442602957,0.36265321609339374,0.366749805749917,0.3376028758358576,0.2958391588000002,0.301391533203641,0.361075663226067,0.3765657506153226,0.2953209362579061,0.22362631904662678,0.29136432357383324,0.41234170642688683,0.5445400668990774,0.6749876760564351,0.7264146840610879,0.6268344521832292,0.5061972881324417,0.38532154617596737,0.268018705337838,0.1619543117968094,0.11304798799161553,0.1710147770982844,0.27046222396504005,0.3670088956836053,0.43803825665639007,0.46961524941768173,0.5039992947193599,0.487625928952951,0.4338910163293819,0.3891697375022063,0.36849074949480887,0.367270041392707,0.3513189323847654,0.3170202398477424,0.32257275496046445,0.36134248626061316,0.3301958651036645,0.23035951626074436,0.18157130458136583,0.26439035378644915,0.38756528343626817,0.510153728904696,0.6377687035764734,0.7416384564718967,0.6799593566628861,0.5504967193527608,0.4294633784273678,0.30753132435945885,0.19021575476847907,0.0828775964475672,0.018612914563635563,0.0671505034315194,0.16309869825571255,0.25866088491327455,0.32999459178726864,0.3726251389427322,0.40529935604175416,0.3827759062392442,0.3233389882450637,0.2605072622246847,0.3006482795626173,0.40195012246166595,0.472032133394396,HB
0.7277796554917741,0.7247203862669549,0.6987921672397794,0.7525506165666327,0.7696006900178816,0.8184023843379875,0.8018904303884398,0.7925727645245564,0.8544626942840536,0.9038605539994906,0.7857496897635872,0.622542113416249,0.6254558706056579,0.7753148901083082,0.8019724018183134,0.7026890850720737,0.766276045033143,0.7743955156995139,0.6595314863089334,0.6072909208228947,0.6310594583463698,0.6394646644268618,0.6727835860422289,0.7120288356008446,0.7071025241500686,0.6937232078809537,0.6697550844206348,0.6850868608162042,0.7660175275285193,0.7027491260642451,0.5413776675486259,0.4116688175542773,0.4975360917446703,0.6498773211859965,0.7302734565753886,0.6764496695763489,0.585459859321924,0.5887709221900899,0.6185469007220146,0.6032238273520547,0.6897487544057355,0.7201726707180613,0.7848890723445061,0.7314441822216353,0.6841445489541389,0.7709523414024364,0.8328824491056483,0.9262555664515624,0.8584068722179095,0.7040151681436648,0.5483995188301676,0.5471006072780744,0.6918388478206547,0.7805271223913879,0.7237674785757675,0.6305316556134373,0.5914151866159623,0.7040039582967959,0.7945802198868348,0.8221867970192624,0.8961053183454326,0.8696647297089859,0.8531902332946921,0.8213400396794532,0.891835094606312,0.9502870320790882,1.0,0.89855201383762,0.7344601933190513,0.6439230525628705,0.7587442682519026,0.8959428162027594,0.9180187246784413,0.8271301904144015,0.7359480921418928,0.7483190188565567,0.7943511590162746,0.8264815027464274,0.8948410064873258,0.8487105519383085,0.7986612319516095,0.8120715381955494,0.8526737535519633,0.7873947172929072,0.6924588988506333,0.7648196233160314,0.7791562716857201,0.6872963140802422,0.6055343983542336,0.5537253728397702,0.5922687562287092,0.6516577109246993,0.6985014636508096,0.6813709902008385,0.647699699568121,0.6679365504258246,0.7428462325650407,0.8242346618716359,0.8889236026970488,0.8001006656414096,0.6618711203599843,0.6817988109949913,0.7375788725517496,0.721236395232276,0.6602296949127981,0.6310635034741736,0.6687159497464066,0.6405838402613799,0.6076183222242717,0.6270366135629706,0.5896297231736245,0.498124897909213,0.3441794983255204,0.2067533252165834,0.24668567426336763,0.40571140080231194,0.49559330402053936,0.39491498907861544,0.23764574567961327,0.19314385224428277,0.3041015366012756,0.45226489628357536,0.44250985635924955,0.28294805587188376,0.1883892926203874,0.24207914103588912,0.4006484881094834,0.46127121901949497,0.4863962918817011,0.5634907114107914,0.6232435541267947,0.5530195864200129,0.3912585370285746,0.21959421057998973,0.104307942216054,0.18959381516775897,0.36313997817121324,0.5291840346490431,0.6799090500481788,0.6649252233615703,0.590067821464479,0.514242005631643,0.531996317138109,0.5285341151900593,0.474907579342692,0.4567755340903381,0.412751887027087,0.3968031001169581,0.4922816202352913,0.5932376260951355,0.6281639783705248,0.5050667838322198,0.33538291779178087,0.23430984655394482,0.3275915818107342,0.4876712621735133,0.6523985377231485,0.7499598203679216,0.7056161351213284,0.6555318987436483,0.6866056206845021,0.7057292133811797,0.6713516458953146,0.6764618017427027,0.6226753918686012,0.5712775161979979,0.6530586177883091,0.7378461558478038,0.7964106960430377,0.7005374182225137,0.5388983329241186,0.3706302827476122,0.19826259513973765,0.04320995794305427,0.04482569294625138,0.19997628251281085,0.3747636917706756,0.5415420853662227,0.717444774204318,0.8550656840238373,0.8326236304930106,0.75129705518858,0.6952909373521425,0.7331381386538145,0.7679496480427486,0.703189955811935,0.6224038649306389,0.5811614125775075,0.470093792823262,0.4573912269437548,0.5581398768041512,0.6539000475153709,0.6606913900114821,0.5155138779553758,0.3480390927662995,0.1770916546475183,0.02257413708242373,0.0,0.14498498658177228,0.3125480154668434,0.48552026350371014,0.6521861331904706,0.7835934414467673,0.7259746259852564,0.639224614229656,0.5656992032711523,0.527134842020923,0.5759800720343837,0.5584876662699587,0.5034061574103017,0.4687942599348154,0.4711848897337054,0.399844857474029,0.4044172158543611,0.5007801709587056,0.5936103259687404,0.5407519626620374,0.3853152455780178,0.22097007828985626,0.06833402004482281,0.06953610852364944,0.22146663667802047,0.387697665145569,0.5423937997244872,0.5526477194388693,0.49830721761480046,0.546958558932439,0.5373477316682891,0.5716958908638419,0.5813597701235653,0.5506273542575286,0.5112571199517126,0.4885723376633453,0.44887662294208,0.4768913554352894,0.5143105987134771,0.6206612607241246,0.5962109672538793,0.5532591934837066,0.42315539595415963,0.25609742969566884,0.12155422253141213,0.17246449534827324,0.33714055313790636,0.5016544581421498,0.6443804994052456,0.6442650120177467,0.6427049231677016,0.6170527644107002,0.6463829320510048,0.5872165374521323,0.6070194807189306,0.566938245700896,0.568081375143981,0.5554881985602482,HB
0.3967054639175558,0.40252261618363994,0.3844205231369182,0.342254278595687,0.341796034331312,0.38947576374587145,0.415963127999158,0.4339767981093101,0.4423945492094776,0.479940779821201,0.5658263233626641,0.6696912438851852,0.7711767490127657,0.8791527794537966,0.9732798429376222,0.9805626536551975,0.8819888551569393,0.7794497854665177,0.6709197575309171,0.5581658204492292,0.44735702362919394,0.4047327809598875,0.4461217205858783,0.4478444776753281,0.4526604096986655,0.49869462660144714,0.562009533699563,0.5342581192731091,0.4645218915481233,0.4408035334011964,0.47001101605080464,0.4810201218873509,0.4840147684064986,0.491267642212982,0.47974358678854845,0.4467073363726337,0.4347174750605003,0.46179670645469173,0.49226719406026564,0.49427297797044867,0.46675188182679905,0.43691451425950945,0.47086314009628216,0.5662883979413325,0.6770005398921835,0.7894180453969315,0.8912392369193363,0.9393644149765357,0.8662050908520653,0.7549693402277358,0.6515689916545888,0.5440152197881711,0.43489667792591646,0.4043328645199895,0.43015430476599326,0.42872822286412937,0.4237348223687061,0.4427209115649333,0.4536827502050911,0.38811993027432656,0.3379984421635931,0.3516858099020457,0.37336432741373304,0.396075971685629,0.41043850737138055,0.39913454793699454,0.363689305055245,0.35435152139572823,0.39571448912651697,0.4234059437854598,0.4328342753427816,0.4453834622042585,0.49921439472530293,0.5951279377533041,0.6947375431135292,0.8035963420256849,0.9051550400967492,1.0,0.9938260476504586,0.8976354103716222,0.792601626862047,0.6800493747241338,0.5716392164472732,0.47373850665096917,0.4459226602059969,0.448271396130445,0.4584235291771872,0.5007019266763026,0.5484545917468986,0.5050426678646787,0.44939398527017493,0.4352986550417772,0.4592214032741504,0.4558554745296104,0.45422011072600776,0.42298537220185795,0.3830527445470939,0.345184339151706,0.311864047825134,0.33401039622030915,0.3570033219329778,0.3668262980424344,0.38280260696328083,0.43008318940851353,0.5187661434625013,0.6230675137553363,0.7253930806878213,0.8339601294423762,0.9380822265560416,0.9966609644975901,0.9279221616996591,0.8160487936743377,0.7092743892359423,0.6051929384071753,0.49270933222185764,0.38235340537630336,0.34758462843312676,0.4055594169416943,0.40459726710146526,0.39931244795570553,0.4453863653354544,0.5055481807254458,0.4721515708373656,0.40771478218937585,0.38683190577024495,0.4144351052648658,0.4137957584547429,0.43489110277655385,0.441115050252348,0.4454286330372863,0.4047644909886188,0.3708968045758154,0.38679488039650867,0.3834061650009284,0.3690104337889326,0.3542494571765835,0.31017963734279386,0.3132944770281174,0.3726187039864386,0.41167544400257183,0.3673180835282768,0.33334998559197304,0.3346980084006206,0.2964610867238262,0.20382994371249508,0.09908633537966383,0.010947390551256486,0.03346701757422066,0.1371739407310928,0.23965307331073848,0.3517247068526217,0.46350487151532427,0.5200458782408246,0.44710806468445075,0.3691477615224037,0.3259595552751944,0.3150553191987191,0.3109168376910554,0.2870247413712086,0.258707029309019,0.2731100016822934,0.31681977130755046,0.3521747903582031,0.39377864429483544,0.4007930908368209,0.3987575802687666,0.36326178068341397,0.3489641825479999,0.40977409434478584,0.44646951766725795,0.41176076862764033,0.3967019235430054,0.38330522212140083,0.36100196206317925,0.2696491871728428,0.16768834050597015,0.07163771187489543,0.08898210078632962,0.18675690650074595,0.2850870382022399,0.3814756080730253,0.4829495583162653,0.564793297886141,0.5151597253665878,0.43475163994395194,0.3876628394248045,0.3812587123071176,0.3711978396022837,0.3608010271899773,0.3329889474472103,0.29798015740596373,0.3045907796476981,0.34638855449758355,0.3566092851899003,0.3430475541833773,0.3218789926364445,0.29024226957779264,0.2521665371497055,0.2898654148660147,0.3541918280079721,0.3709163139664349,0.36045553336774727,0.3720977785677979,0.3529868386726851,0.27468833146730853,0.16941594758301592,0.06874984251272798,0.0,0.052795846098117494,0.15324731998732855,0.261138490294174,0.3738171872669862,0.46972117282642945,0.4428543016221913,0.37358783020671815,0.381582980774148,0.42063236924535374,0.43901318857798355,0.41992991924731715,0.3831705939042207,0.35624788523890727,0.3875206766844408,0.4249498159749563,0.4330199978185285,0.42745122219608334,0.4249997841928823,0.3972131701476682,0.34618275266777143,0.36910040311329784,0.427887697903941,0.4512920415930801,0.4076626133612402,0.38658637168180876,0.3899597070898517,0.3513693867552852,0.2536843956005539,0.14703033217677897,0.05189589808421502,0.03957047660815194,0.13341209332938675,0.24598621376872165,0.35877359179201074,0.47092495823222746,0.5373397167743503,0.4752879722328087,0.4068584726191853,0.3748650698023961,0.3692130663581823,0.36198440746798477,0.3260764193115633,0.28797178816959335,0.2841537126457503,0.3221659099752956,0.3420751732430385,0.3365670378201622,HB
0.8184444893883529,0.7412108399724104,0.6378111755149023,0.5301471405533578,0.4322928747514254,0.3445939151131685,0.3196263564875166,0.3295518468121523,0.32185364185385046,0.30072588314719617,0.2559508915792268,0.26066281494458576,0.29946749749083,0.29038573457009553,0.2594162780920444,0.23490726031590792,0.2552167021983853,0.2757063346484636,0.2774669624409376,0.2736222113521043,0.30569438836997587,0.39297721933247054,0.4855937765490448,0.5804478597733285,0.6837135388278988,0.7829384568334614,0.8600023743330274,0.8200460394021576,0.7208508250520178,0.617136041072436,0.5178023312206164,0.4184071644724545,0.3139272708558736,0.23829700244412955,0.27179242493428224,0.2977662592072947,0.2983915011537728,0.2823438733119543,0.25762371380433513,0.27564341169048756,0.29754055634359844,0.26222683442567485,0.20840399569497836,0.19217001065793538,0.2148274356527442,0.21093905803378155,0.22546773231848038,0.24676210840328072,0.32274110572822456,0.4169209948867105,0.5204866045650762,0.620244171405929,0.7239089788458046,0.7922639505114004,0.7430567706279585,0.643186180261166,0.5483809477398078,0.4549735092306526,0.3542618151083614,0.2530747614627107,0.2093323064771513,0.2751438038217806,0.3380109376349012,0.4051448089932945,0.48339256265680364,0.5505053209139232,0.5863268238829713,0.5583676215633253,0.5375283823663599,0.542549328002452,0.5072420887593445,0.46097193208469545,0.4415954355688845,0.4590377882579362,0.4618237669922869,0.45361215393589926,0.47300948935611453,0.5512776666483248,0.6543367036133971,0.7543803897547758,0.8303076932841638,0.8041738422832978,0.7143330113792858,0.6100948338165195,0.5102615175026299,0.4248850514434115,0.4265336773427286,0.4318814447438397,0.41506835042019086,0.3849981793408275,0.33963149573861395,0.3570870600974805,0.3691235988043524,0.3380030474516347,0.29984144695159,0.2854581991111489,0.30986475078460285,0.3371688311757839,0.34678797053687127,0.36844038239149857,0.4424828207930469,0.5406543766690848,0.6439728238075628,0.7430498021325511,0.8421558506524676,0.9438068715635968,1.0,0.9383847253882229,0.8357639278236113,0.734027517037052,0.6315940214881008,0.533967735233758,0.4383730531230148,0.35702182149713546,0.3609691112247433,0.3675914843809287,0.3655707996194064,0.35333690734511203,0.31647289972109904,0.33184124701335915,0.36329492412180797,0.3558798018170748,0.31656379521472,0.3035058068164407,0.33235126831773787,0.3210722062567499,0.2461344990025458,0.15776082823325743,0.057753058475628505,0.002945558047866781,0.05993894862450122,0.13989109547833678,0.11378569769221447,0.025552649552649243,0.007722428980842411,0.08338342393409826,0.11984747561447984,0.040700167495953954,0.0,0.057275051075715844,0.15666954889690232,0.20136370286191285,0.181315137519384,0.15985614595111608,0.1962634608251097,0.21325320605483644,0.22669420831339648,0.21171237563922252,0.1569605051254983,0.16485531769678485,0.2565005272095717,0.35601737576585,0.45637489117462593,0.5510069889980875,0.650059314271636,0.6715227295431805,0.5838713479404638,0.47989952611211306,0.3801110966627528,0.28458384152224503,0.20725296672447024,0.16836694613438175,0.1695830148180697,0.15283419598201942,0.12364533215135332,0.14306049777396623,0.18379252644275335,0.21589817724780125,0.1916915890103419,0.20687389443910598,0.2520611154202945,0.27498670343440756,0.2748429676834152,0.22662545836006576,0.2142036861357437,0.29960388800415405,0.3896759085070567,0.4835943833547103,0.5872485606018785,0.6892384843028498,0.7481357733892202,0.6808656969317357,0.5758143052960425,0.475943200874668,0.389960656876148,0.3091518508902218,0.2809732478214517,0.28909690057575355,0.28987156967385097,0.27358677680401344,0.29735474532396267,0.3475352966715972,0.38274871582352965,0.38710814436594276,0.41361500100172366,0.4510779408671257,0.4111713269478834,0.3382169955454557,0.265115925132813,0.1923827614104543,0.1344893271094436,0.10519097138270794,0.16640474901250468,0.26657210129105424,0.3661140537378018,0.4637704524247077,0.47040045509707396,0.3791929738401425,0.2900870860310407,0.19084420895550291,0.10150269161599534,0.0535747066199439,0.04603074549521047,0.03818295716417808,0.04489664618883915,0.017095564996389534,0.041118367974616765,0.09977329068818852,0.1358968848717621,0.12675671129819954,0.10610021138558934,0.13912564089006207,0.14799370933214906,0.15427838859760246,0.14342033707633517,0.09795447108505395,0.13080309545666924,0.2275537069306659,0.3322441062549577,0.43340471793850277,0.5138706750194664,0.4826320456808517,0.39245741959127445,0.2933909721171122,0.2010614390397718,0.12763126660954538,0.1022451713729291,0.1012631971668887,0.09786843572494175,0.07343388240004023,0.08576063903547859,0.12531932163685533,0.1492796212626668,0.1144037591622169,0.10011198381471154,0.1353792667769278,0.16886217547784343,0.18281009415437177,0.1720818409472864,0.11970218775255126,0.15085396839101572,0.2505013625352046,0.3553902442575718,0.4475869040753202,0.53653130373328,HB
0.25282660956177905,0.24139820369667842,0.21330279615269077,0.21031269510836625,0.22428598175854542,0.23597164863667874,0.25229452757408466,0.2541884281832105,0.23618858763820327,0.22195449145304935,0.21461536690093408,0.221276902125219,0.24788089870062158,0.3152795582142589,0.3926718032753458,0.47405303130731746,0.5544050092377717,0.6369417332921052,0.7198474844709855,0.8048374665935969,0.8697158249490224,0.8435528821252312,0.7628198573513754,0.682758473991387,0.6010214297286025,0.5189354822182104,0.43889425958520323,0.35431168298774596,0.28070099542167126,0.26414484321962517,0.276992833700076,0.28547131761019706,0.28960548018505294,0.30124082301776745,0.3238086174923194,0.345254068269518,0.3674440443939344,0.39799889905407837,0.4129832238718938,0.4100095822555547,0.4049943454078797,0.41536123881775544,0.42690598802013935,0.482900218862375,0.5563853776105903,0.6353026608236243,0.7168361493477706,0.7983775796430701,0.8853244307444432,0.96384015196686,1.0000000000000002,0.936224070014698,0.8580331511965544,0.7797285165657282,0.6964399760757798,0.615058258796428,0.5343094642464685,0.48166426729303047,0.4914964833156217,0.4927882965883337,0.49274446779672965,0.4856112885496249,0.4955468316629468,0.5102675747255974,0.5254703968250543,0.5379116213315529,0.5386111443604047,0.5226072927237302,0.4939872995508685,0.46200347269783015,0.43955802384890963,0.42174805987877906,0.47019407151713044,0.5443355159382428,0.6245137546477191,0.7072811130043288,0.7924574828828506,0.8735786158546934,0.9591763389090835,0.9876016802618108,0.9236339044223743,0.844701952325458,0.7614321912129867,0.6813114612099052,0.5947664508971957,0.5138714210148649,0.4320223514474144,0.38416571737464644,0.36243431399031967,0.3411341592107069,0.31848640513619,0.28545472197935595,0.2765101303946045,0.28806030716393205,0.2844482569200315,0.27699526297652866,0.29373807799358675,0.28713684118721283,0.2645558411404021,0.2389061798749752,0.21924272791963095,0.22231217757477295,0.27328397671320714,0.34697705743443197,0.427672977007189,0.5037212686971155,0.5743691226813097,0.6607652620802027,0.7494658911043872,0.8347569732084528,0.8894934954569835,0.8517399308044273,0.7692863237126215,0.6884418258456335,0.6077802211007228,0.5225354040765884,0.4398339343433817,0.35773604674935133,0.2802993089674086,0.24283274777546326,0.25018289378318825,0.25663024932911926,0.23828958702113567,0.23808625504066971,0.25890618820295264,0.2773619685720077,0.3025480879261335,0.3197892850135795,0.3052027992625317,0.2965082458769548,0.2735614494086773,0.2535106961561553,0.23954350157869087,0.19375050914980108,0.11268443820039664,0.030696693999292757,0.0,0.03075955525148144,0.11173251856785416,0.1899841810310965,0.19669273732314796,0.1237665498740741,0.039962657104089194,0.004387270966544898,0.031100200502292008,0.11199740265765934,0.18982865783791625,0.2220332170663568,0.24881617112912924,0.2686101929564879,0.2752679304462966,0.24914199368845313,0.2325872961310096,0.215558378056258,0.19335698805011647,0.18951932951741446,0.2112397643631021,0.2109893738032318,0.20627011170837228,0.20458911786346112,0.2580313514756791,0.336945431955731,0.41991141958160205,0.5010409690777589,0.5500638264374593,0.4905408310710675,0.4222645594093206,0.34974182204954274,0.2705264229043296,0.2047735467381624,0.17179082976332838,0.17699632519152608,0.19459511170192845,0.21889358045085738,0.24446262918743655,0.25079578303925487,0.2326184701099081,0.2313212593292009,0.23713160812790357,0.22719910615781203,0.24800165358120596,0.2777818464713764,0.300303490575055,0.3237805649948666,0.33541141065398716,0.39135120059176365,0.46961734731552407,0.5508493868298092,0.6319625718972579,0.6415632396810229,0.5690346663365478,0.48382314747074706,0.41315869087514057,0.3684404304999396,0.3828700568933785,0.4092875439668122,0.4354419161255223,0.4706724879750743,0.49456429669011803,0.5013852900458471,0.49306738425402785,0.4712671215737976,0.45460185897817174,0.44073640694109906,0.4386241376540101,0.44680359919834456,0.4495021871404552,0.4424170825956575,0.4256080376491871,0.4711268569144671,0.5471620295177606,0.6283503104149084,0.6872245669820438,0.6435608727424225,0.5568513800814545,0.4776966788851531,0.4158950938809107,0.3842153976192648,0.3722805870492558,0.3642573961314264,0.373117599833779,0.3729265366544916,0.3492892744463958,0.3203368336064547,0.302289085427486,0.28161247081156393,0.2597168146621982,0.24756008892131698,0.24639642272708362,0.23923367292529973,0.215881642390634,0.19640462860932417,0.24585660306313328,0.3226635508802618,0.406285316673052,0.48712114778709714,0.5635181184318594,0.5472311967392975,0.46181332512850326,0.3754246121110161,0.29850236903141836,0.22993314754217953,0.18545124735572438,0.17219420920098205,0.1742487294663122,0.18303706727917946,0.20416142736364606,0.21709113577382722,0.19814992081940463,0.19674448599731087,0.18225890353198104,0.16420645821793434,0.16219695375137744,0.1958496499350344,0.21262644109809092,HB
0.27674625391706975,0.20952849587416145,0.15893737525930796,0.18704367624330143,0.2503759338248055,0.286074702471808,0.3255610556354096,0.4060278375715427,0.5099907752789825,0.6169065072447735,0.7238873660773608,0.8350395302920761,0.9375266275207674,0.9592371137963012,0.8922834058180023,0.8451068380637405,0.7654669727629408,0.6648485827905115,0.5586708957528992,0.4530602534014685,0.3743425448480182,0.34312431101776575,0.31726484911112873,0.28273939121829184,0.28673845274240994,0.3316319104307355,0.33289461931563347,0.3019211219736606,0.23606993553006284,0.16608135011357295,0.11132042833486855,0.1392067000069277,0.19581785329415125,0.2397493824907917,0.2804157178599245,0.36002644645451687,0.4599860154924902,0.5656825752520915,0.6738805488627144,0.7793481314611475,0.881172304576713,0.9175887985901414,0.8695617982911004,0.8236245108729485,0.73569292301049,0.6354543901849055,0.5323433617146542,0.4401248614511397,0.39331864774991887,0.37992929632763195,0.35006353305755367,0.33076769041696696,0.3584267214087844,0.3811721825262615,0.3577990903718362,0.28567827550621905,0.21490978443353193,0.159819367892855,0.18293105656671171,0.2428768332214153,0.2956255287320473,0.3329933675548946,0.39813314161332425,0.49369422827188325,0.5996075922726893,0.7065326491681678,0.8133934156214915,0.9175994999986226,0.9921409010026956,0.952194101352779,0.8740425442421058,0.8067352429614969,0.711346722312213,0.6066493026738415,0.5002263695509752,0.41424088174411366,0.37779285582410793,0.36952587680274185,0.32994050912397466,0.27786157007281265,0.26716116901095877,0.2955969021518463,0.3167079517777953,0.3352134019538484,0.32285976347185263,0.2673233622077871,0.19621594246824126,0.14320858286606075,0.1698207243284342,0.23532216502855885,0.2911200550985642,0.3226582522736763,0.3870467436476157,0.4878256292029617,0.5928927248057048,0.7012992936705742,0.809915365840038,0.916086702271576,1.0,0.9764797718930129,0.8960750263936741,0.828077976129713,0.7303746731002421,0.6283144337332143,0.5245550208494225,0.42487347638177564,0.3654041318950334,0.37608787170368707,0.4089280184190134,0.3923703789238231,0.3524714598616101,0.2822542690813514,0.20725339129491438,0.1670598901872249,0.2099932379323608,0.2738257545688083,0.3140734168114667,0.3552635318933448,0.4369696021187721,0.5404486898939069,0.6473518445866113,0.7543158283156828,0.8637523459678156,0.9450913294366701,0.9024169618594464,0.802019734601803,0.6971989032136787,0.5861687842491499,0.4705632391395458,0.3735051172130821,0.3019105057164482,0.2231043007118707,0.10735150883197875,0.01517970279277936,0.0067920431040811025,0.08188638673476012,0.19804045283687888,0.23724450210024095,0.1445160713880389,0.0357951768770608,0.0,0.039093583657137554,0.1346390267289479,0.13513748286092087,0.11406556525861733,0.16112449287237807,0.23214422737381302,0.30184627929963037,0.34676053110620986,0.3590495448975348,0.31856797723442165,0.3127430673377205,0.34797729350865136,0.43808506034645145,0.5425442109008478,0.6550445972091214,0.7533605130207546,0.8158302141901408,0.8812796320607235,0.8360400703115336,0.7191245409359661,0.6104384786459431,0.503594348195679,0.40066188694413585,0.31395211985515026,0.2676166442035339,0.23447357443980188,0.17486238674264332,0.10974073967052167,0.0897687588218874,0.13196567973115325,0.197986960012126,0.2674406303708001,0.28946433661909365,0.2719325423302612,0.2467728157366813,0.21840406483260866,0.2240337211096315,0.26994518866866724,0.31923855999556006,0.3285237052048724,0.34943044203481133,0.41236750814552314,0.5104148247658262,0.6238959462857365,0.731480860472185,0.8010827029511649,0.857827237794953,0.8315817271694703,0.728978816633794,0.6239051268839946,0.5326866531101375,0.43643355493962055,0.34892743153410155,0.29109030984864503,0.25360079171793126,0.20062571807735674,0.1408593009133825,0.10992751138163426,0.1451889360933034,0.2137762983064544,0.28887820936866593,0.3346005648885457,0.3183429255499757,0.2858384671464278,0.2813715649152684,0.31863725843066115,0.34227220451971174,0.3562426173178572,0.3940272048361142,0.48748373237178955,0.5918079342755282,0.6972162467364207,0.7631749577503797,0.805300163417737,0.7837113308549539,0.6813142591045782,0.5648078543025088,0.4569726886327934,0.3548641075312453,0.26772438188935244,0.21877087846226884,0.18249254150282512,0.12752005144032053,0.07091210132945713,0.060771573034865245,0.11069389374561522,0.179629820314958,0.24924812173977218,0.2886620370941264,0.2807144348456827,0.22951278949566278,0.22585528369783914,0.2647400511936078,0.2948276136622128,0.3156764852491234,0.3653265438049935,0.45734207860311615,0.5631708805199263,0.6696137401490958,0.7590252874586998,0.8008779423056196,0.8527550304218607,0.7882059459280053,0.6830125425122926,0.5739857935657939,0.455590719302684,0.3548607825063552,0.281949852573681,0.2483251692699402,0.20924581187919689,0.14829985341519647,0.10378732226029719,0.12519782821837255,0.18288866796078063,HB
0.5391746618953426,0.5019307064738148,0.4513460065073658,0.3773334193226452,0.3340159783833796,0.373228847979024,0.4426857840452829,0.5046244204518437,0.5466895408166437,0.5641816983145591,0.5931296298597295,0.6040444383721688,0.6460909372055754,0.7598881473594123,0.8774647479453952,0.9614167864532184,0.9038951489367997,0.7868485588259655,0.6673455804229205,0.615073966937961,0.6376375641308205,0.6407430811013004,0.6194136498281102,0.5843841597667927,0.5352823562543456,0.5057299668857151,0.4840197302060769,0.4671124788863228,0.4718851873306509,0.4234611562004216,0.381152846199706,0.41104423587907535,0.4122515674935183,0.44560204559951977,0.47778410235468405,0.5221137298321299,0.5737079259443143,0.5797216261953464,0.6576509785366982,0.7704795292894868,0.8840437139394313,0.9436308233301616,0.8642632395599357,0.7463412546932977,0.6297446731975715,0.5811608253439347,0.6274613968186533,0.6048583601153901,0.5771095211701018,0.5392574578853226,0.5515042257555658,0.5834912330442616,0.5850744670284049,0.5971702974999284,0.6131867213540891,0.5732985734414715,0.5191305238060466,0.46584052739183157,0.4759443897946718,0.539325194501576,0.606795333949846,0.6569363627709959,0.6707924932818106,0.6278571636092041,0.604146335790313,0.6172371328902209,0.6848555816918909,0.7985076104472508,0.9165491142569175,1.0,0.939232881696527,0.817950505582909,0.697303925428217,0.5927495258601723,0.5723246380930078,0.6314349838341071,0.6302254609476434,0.5844820437270482,0.5513352472890718,0.5231241875486758,0.5524670721911518,0.5821314698498985,0.571348688083126,0.5261133849661657,0.4747350103816177,0.4142323014423033,0.3649324795399682,0.3759544567281048,0.39117810954718735,0.4418780785416385,0.5046777001970866,0.5649345393572336,0.5956523867314134,0.591018250710293,0.5657981751485788,0.628015242503495,0.73947680866902,0.855347604371214,0.9376557599726971,0.8967504110123548,0.7797332560267418,0.6577974215936351,0.5761415010478386,0.6113080211557844,0.5836335628541569,0.546616644930161,0.5341640049908212,0.5160395219480081,0.5341234716865211,0.5097271378252741,0.4707447670509528,0.44490406415822736,0.39120461990170563,0.3210355440525796,0.24245698084120848,0.17501251804397988,0.15100513769221946,0.1982943724357309,0.31798023720709256,0.3619740650321326,0.3371964785528605,0.22577577230070744,0.1408870517723413,0.2101468709991936,0.32746388949844984,0.3613219308920659,0.3157927092599908,0.19518953889576274,0.15259520374458369,0.23382810983746438,0.3358695695915843,0.37852233892335985,0.4023277080769754,0.3220938662728483,0.2164573449955789,0.08771265730611466,0.0006192702184799614,0.003322822325499075,0.05544659878243685,0.03627224337153523,0.000976617452694395,0.021414272413977642,0.025677197989019795,0.0,0.027044598377699014,0.07726131145418291,0.09044601060145308,0.14363699556612186,0.22608768974334836,0.29616515885012484,0.36249699895412,0.39655927205401165,0.43087414081435815,0.4612538874941414,0.4418296817026133,0.45853301922770084,0.4797432868073854,0.5131775394306155,0.4708256563512254,0.366970843140467,0.34707358714905956,0.4478869536609187,0.5572222491681189,0.6152844367507737,0.5473991712034674,0.4912895442117504,0.5047063003591594,0.5275795608690088,0.4813348451979196,0.42246896217574603,0.3585019476549074,0.30738160750704857,0.3019351136008792,0.2872380902170728,0.3352218720366573,0.3916781008823156,0.4509452947679047,0.4937084196908881,0.5032095181232568,0.485115625647182,0.460589766118499,0.4850118287017229,0.5233454936529602,0.558710453484923,0.5195884843936418,0.4120418944917823,0.32101068816160305,0.34354106687704045,0.45402566879102313,0.5708217920158165,0.6379574988221681,0.5749767997531561,0.5235709260899322,0.5206297740474559,0.559459576999449,0.5829592971033803,0.5453477144324981,0.4820553295584058,0.4199767338320144,0.3724355762235789,0.39217866230621645,0.4600322006488815,0.5117545631185694,0.5389334190169954,0.5139616240509137,0.50865624908772,0.4851406703064778,0.46314487858947606,0.48406698022741335,0.5180227933631292,0.5139348582503551,0.4189165523699261,0.3357269853332121,0.38454538035366825,0.4932033424995943,0.5993124583982015,0.5977890808632949,0.5238577865953635,0.5053671488890124,0.4737454369292018,0.43163740547571194,0.3977194089564149,0.3506208721962132,0.3342012851041587,0.2991815642363296,0.3065670609791029,0.36469402770635684,0.4060039380778777,0.4087498419097253,0.4248397556237764,0.43229658288523964,0.46759302157253746,0.5120184155578755,0.5353648491640519,0.5661047684662064,0.5472304820293448,0.46099650513570234,0.37594902538735475,0.4131072433836396,0.5224334854260526,0.6257687113576078,0.598579233082376,0.5177346582625377,0.5179711265449729,0.5055360629855126,0.48653272898446076,0.4712607188633249,0.419749855940466,0.36176154052751386,0.295067993171799,0.26429899384114286,0.29445816604986286,0.36104541197365947,0.4232213329804848,0.4591032042664951,HB
0.8251522210761246,0.7064947814944627,0.693691448616526,0.8284133639977074,0.9277815657206978,0.8675991057425319,0.7822373984024811,0.6735398110531414,0.5350628885579938,0.42361005680207864,0.476223461082832,0.6061682725953359,0.6965099163136466,0.6944334386732041,0.7411811447139609,0.8355056870207545,0.884597019319556,0.8857921533029729,0.8839211341770903,0.8094004191435094,0.6715775793905121,0.6415248117856156,0.7793134325504965,0.9259379611328136,1.0,0.9042093641036417,0.7975850113545326,0.6950036561426445,0.5605802476818513,0.44868401584675377,0.5045344029329768,0.6267215894671088,0.6817692106174813,0.7080006607984948,0.7929265166723054,0.8550244154289195,0.8813302252430462,0.8866508803561337,0.8469710551235079,0.7250092833341806,0.6586963177890293,0.7820986997591373,0.9278667025408769,0.9965487809919922,0.8991114428831315,0.7987575621013918,0.685014204860813,0.549396044264018,0.4621715468982148,0.5315864326005535,0.6531123456739816,0.6933171205744157,0.7097450973601656,0.7863637750468166,0.8407738255580921,0.8567318880943438,0.8761759423634818,0.8670497827893104,0.7602158777881711,0.6157055859899563,0.5397170967238045,0.6579560850693,0.7887627523556602,0.870127801364728,0.806808438922912,0.7113683367908559,0.5865045247833067,0.4623090904756064,0.47656553834152904,0.592630160086165,0.6629106272086749,0.6683228485363286,0.7312052967538745,0.7979542031631062,0.8371737993337294,0.8510931241893531,0.8486049207569963,0.7512660555587138,0.6013051488483185,0.4487642303314119,0.3377465542215705,0.42509916467601316,0.5800326030795016,0.7305517820696137,0.8352969227755644,0.7900138020670999,0.693055353637912,0.566136122616292,0.45353306313593844,0.4843375346773171,0.600855736367691,0.6595588162660762,0.6850084689963745,0.7181149622635874,0.7938884164665283,0.8407269098710684,0.8473948662745845,0.8682876049814374,0.8442121348160647,0.7103875804780331,0.5711318334139772,0.5121494253971988,0.6334389312370261,0.7864575776949918,0.8530553268109404,0.7863916564646418,0.6861446285185191,0.562229189874389,0.47839005290763437,0.558188197474335,0.685167811581374,0.746059570325853,0.7487030132019439,0.8076477266696398,0.8813519442899613,0.8782931627779571,0.8065023075674116,0.8084838716679337,0.7813315538640784,0.7684712807672742,0.6754848015264492,0.607620999165138,0.5896158838384986,0.5156086253872014,0.38977988303210154,0.3278882330240793,0.4208279331845648,0.5444063803661319,0.6596050027010802,0.7329502991161787,0.6513272756476636,0.49703625953660335,0.34403011204869793,0.18778103169131688,0.04838492951143847,0.04712258207229203,0.1885357251040638,0.3417428057909695,0.49504196545832846,0.636886810955787,0.7427109381760659,0.7326889768611453,0.6804559061617721,0.6785987424237274,0.6135598640406221,0.5225734699065652,0.5022442670089498,0.5346219975370001,0.5349457753126452,0.4649733551009634,0.3479230866854004,0.3008165897896906,0.39045546962414557,0.5169299400550882,0.6335702310370634,0.6243891318112826,0.5323642832556748,0.3834212655842264,0.2300072597537075,0.08329755415921025,0.0,0.09427080934228527,0.251648485998309,0.4081271492877301,0.5597524622672392,0.6916936412596706,0.7512135889877105,0.731254072190914,0.7163348229628337,0.6934861583083101,0.6336296757609778,0.5786620746574065,0.5687955440956958,0.475450501673115,0.3726840796130788,0.3739377517362592,0.48502344221099136,0.621878655611845,0.7197496233383882,0.6917669049906441,0.5511458498103377,0.40072141531083627,0.25596799558088446,0.20428008459912217,0.3225174809650202,0.47317834746094833,0.6238317010593732,0.7592934920830783,0.811883413716529,0.8061162964147837,0.776018188981936,0.695340461919014,0.6390961011653102,0.6090559133306988,0.4967876983054569,0.3838414366855911,0.3895344399120675,0.506078005643813,0.6398306552474682,0.7522999455049186,0.7832805182572598,0.6607765701096748,0.5031328178714243,0.3520360347778353,0.21742391464845578,0.22812706108109948,0.3685760618295908,0.5223354388257166,0.6735046604011106,0.7979716580915235,0.8279686278316136,0.8076284991364395,0.7646377682707688,0.6738154161693948,0.6147475402482012,0.615988040461954,0.5449508007314283,0.4203239225216504,0.3390123409776904,0.4031467479750819,0.5280833286910243,0.6615288608018708,0.7647067673957313,0.7716901519650898,0.6375720848159627,0.4826893803519541,0.32883111413794897,0.18517812680940549,0.17257374470920928,0.30664718847171724,0.4579399126736594,0.6186770359464502,0.7658688835004188,0.8299481650190743,0.8181331874916844,0.8075834070391461,0.7408663544910064,0.6563020141240519,0.644425370946895,0.582309961015604,0.45572446135412115,0.34798299213152095,0.36314523797584997,0.48421240841092583,0.6240678910648358,0.7429729988306715,0.7663578334709276,0.6428910950995985,0.49101510034002116,0.335724356836661,0.19556501145248895,0.20038813912633158,0.34178509048403605,0.49372332763565385,0.632329950393745,HB
0.551117858206613,0.5705318585708077,0.5760132529611921,0.5240426567881791,0.48196616314288976,0.4547701820264223,0.4994427994636763,0.5128011495710636,0.5535609632766141,0.6038336937119424,0.6451593800398787,0.598282035029039,0.5369910893975516,0.47815379501145694,0.42079736433725756,0.4260726694770791,0.4529999504306983,0.49211749197117793,0.5036843462565344,0.5330722137339823,0.6475829345404813,0.7628523541340684,0.8838109768798486,0.9819064958794397,0.9735923117762781,0.8663243071269395,0.7393140414672499,0.6189430394359214,0.5053344578509189,0.4146630002435967,0.4173461933780893,0.44937445986709434,0.48103080439989254,0.500705247489504,0.47629663679372714,0.4585030922060578,0.4358519575670563,0.42584557976801607,0.47657005516066464,0.5335898982346503,0.5598625426818953,0.5305524725739619,0.4824441422691339,0.44096029324046304,0.43663697929811685,0.46142487624257233,0.499939583208453,0.521616916262031,0.5362095912636082,0.6371948753366268,0.7639878297100333,0.8793738505826352,0.8979318222133839,0.80160189887338,0.6858445340345187,0.5678512671180025,0.4676784920382855,0.4424542681404575,0.47111910134260127,0.5019025004450048,0.5396754709178846,0.5681894269307359,0.5656529454439991,0.5715091322683614,0.6239965383696489,0.6729920339523447,0.7016185524998999,0.7240695659648217,0.6925884792143062,0.6494176797780988,0.6075369116850364,0.5629905662542649,0.5705569575153095,0.6188854386821356,0.6824893485042689,0.73213386427572,0.7040635553327705,0.6316651317781106,0.5679815170855655,0.539653059953316,0.5474308890645503,0.5508409669146741,0.5525424633369203,0.5613599608357913,0.5303169560060694,0.5685868790356903,0.680745910627695,0.8078491573902449,0.9329315275618195,1.0,0.9320429826972849,0.8163190668545606,0.6984306768747528,0.590334015816893,0.5026077195888594,0.4949449152075376,0.5193539182927185,0.5317226018457184,0.5774349080270436,0.6057547547850506,0.5800975486577804,0.5753065635193528,0.5636767648793652,0.5558678825525218,0.5345739304795449,0.5180113506381523,0.4604658029141433,0.41971996475861184,0.36117422017718637,0.34512899251868623,0.3731911576327751,0.477240100230091,0.597759190813921,0.7116612958242134,0.8329927091140825,0.920175881886363,0.8856606592197322,0.7723023148195773,0.6559858604523718,0.5294616914086623,0.4302677214259698,0.41945370616705846,0.4263147165194563,0.39746914468797945,0.425328578344784,0.4529653113089611,0.4959502882398277,0.509297127764345,0.4427674791499405,0.39987008671806024,0.3547619890241296,0.27468401281294463,0.15037010000898032,0.03788976781425024,0.0,0.02987663929224249,0.13641846349815845,0.25948506516792813,0.30100930868701203,0.2034023379776233,0.07921467167674567,0.010798183338954548,0.01646152702320114,0.10241630213526687,0.22861692396087063,0.3314884992892466,0.359700526228544,0.3472384890299791,0.40446838917175887,0.5058316983968814,0.530424383809482,0.42274831050736905,0.31615143721862804,0.27081961501738805,0.2756223433035969,0.28040679039750627,0.34315694503027894,0.39105339491463464,0.44520160230544237,0.46282278328719073,0.46838031093967336,0.48832112981983977,0.4944147446852556,0.49614816227194725,0.5094756605574449,0.47394260083156947,0.4454009164684636,0.4181963841416336,0.37418877673690654,0.33862655171511413,0.40783642967993083,0.5082556424344999,0.6013161070453861,0.5802461681925806,0.47043632697432347,0.3644169373055055,0.35695394125220536,0.4394915586759729,0.46951353023561015,0.4451445729240904,0.4572490639351918,0.46201518041395984,0.4910167576664666,0.5534928138523902,0.6211385101295521,0.6572385823528912,0.5991242276154778,0.543110476867481,0.5021846084523203,0.4939085548181894,0.5336584068494603,0.5802273237006563,0.6211165357082264,0.6457860885995728,0.6242068983342874,0.5836086791956743,0.5201033408210067,0.4797260085129431,0.4981670646146723,0.5007057439512352,0.4592424179324013,0.42321061321590525,0.4036069895197487,0.3611481540341388,0.3154737126727092,0.37587028612620355,0.46963514591717814,0.5023396817405024,0.41018972181342184,0.38129133897642165,0.4298020000751226,0.4181827044521129,0.38400399498921534,0.35640010146781087,0.3604368831055491,0.41031313967727767,0.4573959814084607,0.4892048930114492,0.46102536469080935,0.39988777999426084,0.3493862393645215,0.34956955820059177,0.3844397425444597,0.40048968894934633,0.4152164499186579,0.42358126973730315,0.3989989165312888,0.35765840148571915,0.30800933658335694,0.29177826181854893,0.37856747861836304,0.4904356589287846,0.5955096347525957,0.5848533822345638,0.47526345763157396,0.4058216084205992,0.42569459784243735,0.4082805905692095,0.37998598396299377,0.35989945794197986,0.3344300288239266,0.38005108660884224,0.4498697576924613,0.504198287135849,0.5455337003543792,0.5060756044689536,0.43906961124651556,0.41319587173835615,0.37559557455635995,0.3672109310290792,0.4121052520665409,0.4508541207375001,0.49059944670223965,0.50621573019624,0.4729091648843653,HB
0.9602806991724326,0.9158589676797504,0.8879028237767252,0.8412275477927038,0.8030119290381654,0.8246260471092819,0.8545486130686066,0.8687597892391759,0.8874813180758416,0.8916710273617572,0.9147084156977392,0.942269334063021,0.9319104588601117,0.9054508709333129,0.8997223202013147,0.9027799459963244,0.9424300635037748,0.9585642719389591,0.8703671545391216,0.7617118183148925,0.6562944778822499,0.6690793308532157,0.7704369131479487,0.8694438287090887,0.9479971969109025,0.9349161138990276,0.9021617503779151,0.8626425997134632,0.8221998741255383,0.8168266867674381,0.8517134816785383,0.867822372465888,0.878446709081701,0.889064370800938,0.894671917778642,0.9161716248768854,0.9246155013152062,0.9073192195068465,0.90099982639542,0.9062158214145464,0.9395845006125476,0.9650812523542396,0.8833569774553578,0.77946955510875,0.6650123118345308,0.5827351201823106,0.6503128928054178,0.7540773261843128,0.8568586794554942,0.9470817960538074,0.963178104688146,0.9110751830468147,0.8765511664760017,0.8269303927552951,0.7916031587720644,0.8255578177195819,0.8609732071595528,0.8708438713748066,0.8800342516589208,0.8873379596799571,0.9002080826369487,0.9352467826123931,0.9640861423795999,0.9482769471459387,0.9300938667856806,0.925260370423836,0.9150486729539324,0.8822581737377202,0.7928920590749777,0.6888728965970332,0.5769675424923573,0.47149656447736965,0.491689559331552,0.6021300210459419,0.705019786984675,0.8072422268520867,0.911701744254336,0.9999999999999998,0.9930909382333917,0.9292157469954521,0.8900148450878242,0.8409004166342282,0.8032667499126467,0.8239846655847713,0.8606577243878217,0.8729406722502653,0.8985066410674245,0.8970058194895156,0.905077391325561,0.9388091163972387,0.9562426409598628,0.9410966281084516,0.9184029946892986,0.9132633483512829,0.9206458445718779,0.9256556060074754,0.8584246651018679,0.7490400467533995,0.6336980670653956,0.567334863458447,0.6503346757099833,0.7533631973326476,0.8536034647720616,0.9480774371733343,0.9849952290580808,0.9333057568571526,0.9133715920667214,0.8719490940602277,0.8281351559525121,0.83289876292803,0.8729852076604223,0.8945229573561699,0.9060204493128639,0.9032214092206401,0.8511398370153993,0.7914746164968574,0.8137296893786481,0.8528227181189834,0.84077899598445,0.8310603284250477,0.794304952236655,0.7528567463173446,0.7709371951267963,0.8179541662138117,0.8592845466820782,0.8689564902088633,0.8034724803553981,0.7011775313741471,0.5969004183221418,0.48492294250097534,0.38034207107184126,0.26580103465251814,0.1584202157039647,0.0790453933385864,0.12143075105747192,0.2321039720903033,0.3382376725595131,0.44905708309622105,0.5631672901478149,0.667518438013224,0.7788606896920867,0.8476881149497284,0.8477587892370229,0.8588937921472264,0.863472024001551,0.8900070168090657,0.8965604495769155,0.8625860475535287,0.8443667576870182,0.8453247123270782,0.8397876389222418,0.813312272021719,0.7915016066244067,0.7534258211755771,0.7405326029464809,0.7760225404630454,0.8261512002978246,0.8643296216798746,0.8758241723091784,0.7907375278418096,0.6760057639755128,0.56957293353026,0.45908350409125975,0.3440577787714536,0.23912339389826065,0.12669323355024953,0.019441556713916786,0.0,0.08680498955435945,0.19897089920607636,0.30692421980256346,0.4157295210897398,0.531381143000315,0.6389675971840931,0.7474051546106903,0.8354191766165064,0.8762204184609723,0.8752099291134219,0.8845734457120138,0.9059728291329312,0.8955097693468994,0.8558468949119844,0.8358107624212934,0.8221986721654095,0.8197125677475243,0.7964927654418481,0.7456949420025898,0.7424641756003194,0.7814012732984288,0.8311628471033086,0.861139577314191,0.8348859404588402,0.7378840363340402,0.6345778521421173,0.5246444067393179,0.4196801828504453,0.3058240262378116,0.2012143317672228,0.08894466723104988,0.011183840942810663,0.06631241779111563,0.16966108127087187,0.2846780489826266,0.39994674589169876,0.505163990433535,0.6171780402752807,0.7322179777924245,0.8255203109710594,0.85777731886324,0.8526441699726821,0.8590844625093383,0.8743710262072037,0.8689104247148027,0.8489599463078241,0.8464922290735599,0.8406150592490758,0.8184599430230086,0.8068381781798466,0.7680603861446398,0.7402042165839344,0.7757162192213201,0.8186856610242976,0.855925140910575,0.8638097006962602,0.7846634360806186,0.6808448838828587,0.5709206889526344,0.4659092605753006,0.3514767075749192,0.24602174164556545,0.135993542140876,0.06951478000962674,0.11140665069187006,0.2019681798551276,0.3168055258678597,0.4313884347471453,0.5358385670836483,0.6492899598537025,0.7639648638163183,0.8415000949437099,0.8518954961222935,0.8538701979960683,0.870360620433708,0.8865468360223552,0.8599285417786227,0.8378024666077446,0.8351948873870592,0.8172270653059541,0.8071619941059256,0.7781522149086155,0.7394395881142717,0.7478318142288327,0.7947756797988028,0.8425229960656224,0.8562548233434237,HB
