0,1,2,3,4,5,6,7,8,9,10,11,12,13,14,15,16,17,18,19,20,21,22,23,24,25,26,27,28,29,30,31,32,33,34,35,36,37,38,39,40,41,42,43,44,45,46,47,48,49,50,51,52,53,54,55,56,57,58,59,60,61,62,63,64,65,66,67,68,69,70,71,72,73,74,75,76,77,78,79,80,81,82,83,84,85,86,87,88,89,90,91,92,93,94,95,96,97,98,99,100,101,102,103,104,105,106,107,108,109,110,111,112,113,114,115,116,117,118,119,120,121,122,123,124,125,126,127,128,129,130,131,132,133,134,135,136,137,138,139,140,141,142,143,144,145,146,147,148,149,150,151,152,153,154,155,156,157,158,159,160,161,162,163,164,165,166,167,168,169,170,171,172,173,174,175,176,177,178,179,180,181,182,183,184,185,186,187,188,189,190,191,192,193,194,195,196,197,198,199,200,201,202,203,204,205,206,207,208,209,210,211,212,213,214,215,216,217,218,219,220,221,222,223,224,225,226,227,228,229,230,231,232,233,234,235,236,237,238,239,240,241,242,243,244,245,246,247,248,249,250,251,252,253,254,Target
0.29361116068358584,0.2793879019068548,0.266330278349745,0.26623308662824297,0.26623308662824297,0.26623308662824297,0.26623308662824297,0.2662291138236226,0.2617940502001952,0.2772804719703128,0.36308632967049803,0.445374752682115,0.5155923214913436,0.6047672909819886,0.6945030827813401,0.7842383232895918,0.8704328704737625,0.9196078216328889,0.9140943262013996,0.8376843310935014,0.7538060505317796,0.6847778132550459,0.596020344853371,0.5062845746384124,0.4165487282432485,0.32681294660125904,0.23769764531722082,0.16795343558074727,0.08513380600013143,0.0,0.009878563293999498,0.0748741823178607,0.13789968120181406,0.18304285295686462,0.21023382793550294,0.21116045791206073,0.2111607385091503,0.21259333829269433,0.23410798768976981,0.2174853474546925,0.21582720483565954,0.23668058477609133,0.21875075842472302,0.21117195174928494,0.21116054551929686,0.2111608807122014,0.2132872326202646,0.23591371054147459,0.23869487233254727,0.238900546840501,0.2559230727304582,0.27756807259295524,0.31560027389423784,0.35248521869593485,0.4089124760563987,0.4551403252521906,0.5113119374799036,0.539891287697202,0.5197254553341768,0.49152605028929663,0.4669895445180643,0.4229595627985132,0.3782409560705542,0.3432621806972662,0.31931537097894225,0.29245404640298656,0.2675942748918194,0.2512273027576626,0.2529966925619025,0.26255234966925567,0.2500451117407012,0.263656104246194,0.24821390956994804,0.2658252512217745,0.28469792990837384,0.2779141889116845,0.2540394018165353,0.2410939555893563,0.32445947073477477,0.4014472486214773,0.476661093144779,0.5662164169804687,0.6551121499817878,0.724595035552162,0.8061780688072053,0.8612557369672418,0.8553950308680642,0.7927876927334552,0.7039015976243563,0.6189952354744417,0.5507468480005988,0.4622264046268869,0.3724906953560918,0.2827548489609262,0.19305617441847556,0.11210286825443827,0.047292730686628204,0.07463667127620077,0.14286410453290976,0.20259636296441652,0.24561617241361944,0.2656944557948524,0.26623303584143887,0.2664316941257754,0.28545150598676017,0.3182316352243175,0.30290384706508444,0.25984303581632506,0.25620487051147567,0.26615282747536906,0.2584188220676511,0.2545833560997117,0.2661654924743688,0.26623308662824297,0.26623308662824297,0.26623308662824297,0.26623315265108705,0.26717202647325244,0.28792089963135936,0.31162699415948225,0.3580396963675003,0.4138133901542691,0.4590613544459341,0.5020677178130937,0.5126328546357231,0.4909998586197757,0.46887824121943567,0.44743773585979163,0.4046923247156302,0.37118213531920397,0.3686937039065681,0.33953393256354314,0.31991120899678727,0.29822808306934867,0.29377257605585605,0.2937693571827147,0.2937693571827147,0.2939211843120262,0.30906436263487613,0.3212392337070842,0.3262636124055831,0.3870937296717596,0.4547344707493153,0.5399771241026974,0.6255196507790135,0.6936235006238851,0.7816473301452653,0.8684568071420484,0.9349656931881567,0.9941183350408842,0.995509602109995,0.9368979562514532,0.8535572691024287,0.7638297720733211,0.6747965145733721,0.6057031735619365,0.5221506766734878,0.4324225783275919,0.34268673193242716,0.25295215292401974,0.16556860417861685,0.11913457989770126,0.16268828778116795,0.23072387310334186,0.2770764296091137,0.29358809097626004,0.2937693571827147,0.2937693571827147,0.2937667370870267,0.2905025567552775,0.2679425558826578,0.26623330882050844,0.2657467530828699,0.24714321297057396,0.2387124863713881,0.24302228260122227,0.26459011906306973,0.2662327371511193,0.26623308662824297,0.266233284696777,0.26768602254569096,0.2918407267343808,0.32167589313414524,0.3599360977222368,0.4142165398484776,0.46325984962258726,0.5053186763817124,0.5341093565459261,0.5234956693813082,0.5019472567899292,0.46338670576744523,0.4276985518709866,0.3829883819556148,0.3464039103685721,0.32094617666168457,0.2954895782121296,0.26896196292233654,0.2660828247812228,0.25195864086105857,0.23880657800391258,0.24568746978483968,0.26567068818430073,0.2775686767758323,0.2934320551124445,0.28344227059374294,0.279357964087378,0.35569134747833697,0.44520167846118763,0.5187515691506315,0.597376234108844,0.687051883699529,0.7752957978739543,0.8426343605777582,0.9286467987165228,1.0,0.9998193177675416,0.9462780689731645,0.858424576890676,0.768732967580414,0.688447415943986,0.6165225645098378,0.5270177665853089,0.437281920190145,0.34754607379498026,0.2578102388268464,0.16851964851357337,0.12608713221112122,0.18507046634422242,0.23145021340822147,0.2842001802161551,0.315119418436292,0.31103856897587256,0.2939758959000418,0.29474781135641237,0.315455345564307,0.3205450803560437,0.2874484416085874,0.27825022672659827,0.29351863388719757,0.290081859402771,0.25530886015802867,0.25696138953892156,0.24212789577473348,0.25554695147741224,0.2604967272910832,0.2408710532289442,0.26114566753472523,0.2662291138236226,0.2663220830385731,0.27922518503792215,0.3172937685781809,0.39009470224298504,0.43473579793830286,0.4852742778007588,0.5278330960612072,HB
0.9634885653243779,0.941515365780746,0.910145128947546,0.8991381001661498,0.8988335476728126,0.8890109283732461,0.8927233280626741,0.8679272533335269,0.8692048359563298,0.8666588889989781,0.8863069861821211,0.8638380794338385,0.8882433697794223,0.8852834337268627,0.8229127411125865,0.7910680622377919,0.7832354022551882,0.7346768327803082,0.6557273564345563,0.5758130356189652,0.4962992816297964,0.4408590268304424,0.43333416557002247,0.40681628741590137,0.33136402973082824,0.2563840738330909,0.1902458602775714,0.11102594390562981,0.041134989478606165,0.037436093224265665,0.08846478429414617,0.1537506011457932,0.2330400086753488,0.3127104269181209,0.3813486712247216,0.4534490567815488,0.5329527500421523,0.5984416434437083,0.6562163234416056,0.7201880653013935,0.7939865287218999,0.8559080676342128,0.8905641059802627,0.8989640545901865,0.8927989120739426,0.868786185230134,0.8716261519353612,0.9093043459488452,0.9004107452926777,0.8853152630693142,0.9121087184014747,0.9481350605993453,0.9405774721298581,0.9228804295571034,0.9370170207683892,0.9289223022645507,0.9031077055246715,0.9087656537508586,0.881069934055787,0.8621527917068876,0.8813482611599541,0.8690639264961977,0.8507648250526452,0.8753773655705399,0.8635845152289159,0.8777025291104263,0.9219606276445793,0.89132059556293,0.8675613430439251,0.8506691597202956,0.8250010607028617,0.8589072234153674,0.8971125694941819,0.9222192793041781,0.9136558364261851,0.8688620718686533,0.8716042171310403,0.8645458375661872,0.8607772476144331,0.8816872278502652,0.8829126908580252,0.8898192372428557,0.9027143054266129,0.9413662318486993,0.9416996839138827,0.8669681315791968,0.8017242809201965,0.7257551960167694,0.6495354441347989,0.5842865962006618,0.5072001892853772,0.44248167345659306,0.3649607926366709,0.2850490482559698,0.20513457369568977,0.12547885494485111,0.06148374582065452,0.03631810994005891,0.0777061345009229,0.1405183180129268,0.21768586159418524,0.2826198950360914,0.35122183836027254,0.41985953561925005,0.49051928015569146,0.5596363923545935,0.6254853904202569,0.6942903408806935,0.7604695479046004,0.824831904952819,0.8875305087405456,0.9267407295707106,0.9039528866018922,0.9161224021702452,0.9523937865385799,0.9180180984330031,0.9091671873136802,0.9399900818992188,0.9659896251605522,0.9477772987248407,0.9591535150804682,0.9528047182761195,0.950603303569292,0.977690747858583,1.0,0.9742399274478926,0.9298254429018016,0.9333611797548937,0.9725751543417434,0.9503859769761944,0.9182155856758909,0.90129319466037,0.8877049216805144,0.8837510538333775,0.8955489434141142,0.9178738544662264,0.9307382316490034,0.9238357761140401,0.9353213368976925,0.9228913663967178,0.8924558515373144,0.8898590471808787,0.9042175195997668,0.8865424728883866,0.9163947889083404,0.9197121673882624,0.8823257538063021,0.8371883958713418,0.8458773387198542,0.8809434696695688,0.8969537327115278,0.8706792111719617,0.8522771146928956,0.8776269346113041,0.9009236877998754,0.9205316482729833,0.8539112734452323,0.774166902815697,0.7042033447597609,0.633521734621211,0.5601518510508852,0.4928275163160052,0.4132473932135423,0.3348911203084777,0.27009060435402876,0.19301109857755838,0.1237598764074006,0.08870959729877281,0.1280733450114382,0.19824632595474068,0.26763026603524276,0.34665428563581324,0.41260868535460116,0.4876009017404179,0.5561392966366512,0.6282707055678078,0.6998057621189884,0.7555258448820377,0.8199697124538976,0.8778722247879966,0.925874931595597,0.9443985338863654,0.9148072057724654,0.8747775872151875,0.865604086294562,0.9056862874100653,0.9405573927271687,0.9185643707552313,0.895069584989018,0.8816986382885479,0.9064510094274869,0.9249495445980425,0.9239187161756073,0.931414532626909,0.9044874785415224,0.9176968827631997,0.9161380048998713,0.8987836366274511,0.8854605091168071,0.8915347398189586,0.90668487798653,0.9220451103033502,0.9222208736030781,0.9060491447135339,0.9420509215961155,0.952078925060996,0.9249332694224339,0.924847577826116,0.9227825978463731,0.915761008289552,0.9020661314664946,0.9228904519590935,0.944912806200132,0.908502279631699,0.8787266347663389,0.8571766493228163,0.8462233278039628,0.8799321565874751,0.9075153363527013,0.8868864603323598,0.9164304060329522,0.9452672207053077,0.9104710742139477,0.8338699384881543,0.769261582326882,0.6928230167282798,0.6396453330206446,0.5820438214247332,0.50968459268439,0.42982274907687756,0.3499095525193243,0.27205950483792396,0.2074325908403889,0.12955480005760567,0.05244285241657698,0.0,0.00964347642620611,0.07634645695917541,0.14575291686161096,0.2159022754066422,0.2810764175459326,0.3569583341864462,0.42431186211944727,0.4972648948658036,0.5638386025586795,0.6381514236278933,0.712120279609664,0.778052166916801,0.839402228257184,0.8869785183376333,0.9111154218558415,0.9079731602233867,0.9230983054148267,0.9371904656109327,0.937823324278805,HB
0.0,0.05933074597196919,0.1144300399417757,0.15418927770917534,0.16318587861325806,0.11758712569002094,0.08184052021374688,0.0802087960004485,0.08165233509227754,0.10264183937687044,0.1149459428187618,0.11508768723181717,0.11344774419810522,0.09941099298119882,0.0976522819404706,0.10086368590053008,0.11637624805225055,0.13259971028169693,0.1511273334086214,0.16663805977471213,0.1674076252751675,0.1674094338803127,0.16955445447176487,0.18350920483752775,0.183105202139068,0.167850831592816,0.1391461231958644,0.11143530925547296,0.09029671685455032,0.08065777893328718,0.0925984357071572,0.10852918374038056,0.1243496289872339,0.13999518639059927,0.14260390975551562,0.1456210289514921,0.13960667387353087,0.1414776006695777,0.14709367734440582,0.19158155458127313,0.24294095995611453,0.3004587756907222,0.3566727858969072,0.41117725452695275,0.4750639158830223,0.5354574323017554,0.5863537713550424,0.6496707478108443,0.7125239780639232,0.7583517142799017,0.7914788578907004,0.8095722830980665,0.7703525629956913,0.7068398995363641,0.6525625037251079,0.5960788486419584,0.5321056005160063,0.46809114534157414,0.4040811844191339,0.3428132310771326,0.29247123183333024,0.22947316018816366,0.1654780565827143,0.1147026502131383,0.13821539379231274,0.17225392988315802,0.22541561344689498,0.2726499607814259,0.30268127854117965,0.28496198558373376,0.24228834655727205,0.2066173782960563,0.21808819549867486,0.21987909360388747,0.2316354849804534,0.26164215111406897,0.28201469304714344,0.2731673571531865,0.25759887259079806,0.24606730604823568,0.24742057175971643,0.25454533440125626,0.254771772961091,0.2666749400935151,0.2821379278733138,0.27533623365114535,0.28867023161238725,0.28952254687863244,0.29653399268826464,0.3068396934039739,0.3155583997444973,0.3153313269257083,0.30695649522519375,0.3010265191394259,0.2881406388006509,0.27383203683944357,0.2763724533737011,0.2920960878842753,0.3052077596466529,0.29228971491364275,0.28907664560032975,0.27712361683751396,0.2663636529640465,0.2784487047741564,0.3279866066044228,0.3625276972586615,0.4144564538233255,0.4647121413472468,0.5259550409498686,0.5889484360867083,0.6392904353305098,0.7005583886725115,0.7645434723962006,0.8227011622371383,0.8738816763949551,0.910988999205463,0.8999286888303835,0.8482222031123356,0.7973832305901216,0.7370717096249573,0.673060506621245,0.6090543730818618,0.5486134571635959,0.49779668081822015,0.43444252146783535,0.3704280662934032,0.30641361111897103,0.24241019272585707,0.18675617059640448,0.2138794570642033,0.2738598991370105,0.323968077311267,0.35768353733250935,0.34374135458244703,0.2997738975541191,0.26135113897881324,0.26261317186725464,0.2719404656356854,0.2769432799960181,0.2890347457649285,0.28948239991853786,0.2867462512186796,0.26801744139260997,0.2661697822979141,0.27238028386954705,0.2847214420440194,0.28960995719410887,0.3010441356875915,0.3225791479695057,0.3245047833397665,0.33427050732343444,0.34173683849871805,0.34180596965652565,0.341029359348874,0.32748459532432017,0.3155039170653402,0.2922788012924187,0.26689980020357584,0.2403426759320677,0.2188225548585585,0.19751847100535747,0.17614899622267544,0.15550201291055998,0.14778228566812324,0.12964543701161446,0.11549516820493189,0.10878848777780181,0.081399968809587,0.09016327569913773,0.14100562538369577,0.2046470413544883,0.26866149652892135,0.33239037348942446,0.38495270664531756,0.4432811851653957,0.5072768932199216,0.5682033800868553,0.6186691883472704,0.681586945288652,0.7297882371434263,0.7387097510470642,0.702655857842478,0.6455341546578892,0.5824866680404193,0.5321747810655517,0.4709613101111265,0.4069491336685602,0.3429346784941272,0.27892060495197457,0.21589024452957695,0.1656099695112876,0.10431489579737763,0.04208155794115376,0.03114331777671131,0.08429937650075292,0.1453995844171736,0.16625963334511917,0.1391545753426109,0.10355295454470514,0.11154701874378148,0.12726212341553822,0.13487773732802433,0.1579687473183511,0.16734710116564067,0.17340569114666948,0.18457006535459275,0.18487426514184557,0.19090438271076593,0.20359685022463347,0.22135117999509601,0.23655950159061012,0.24660474576950797,0.2547499297539906,0.26560511044617785,0.27235226643260013,0.28447489850673646,0.2892032243144267,0.27738161768877223,0.2581345838290723,0.25432849098349086,0.24036051091010613,0.21218009340440602,0.21794025102588632,0.2353418405701131,0.25280705545596494,0.254607123789099,0.2562847300930886,0.2702800841183737,0.27219272130883354,0.2885577511740416,0.33560264711677856,0.3948412273143367,0.4538387616817192,0.5058611043471348,0.5693082632728554,0.623557696888247,0.6801058208873942,0.7440508960134031,0.8076902601974645,0.8592573145657534,0.9186495811874664,0.977093523142913,1.0,0.9649601611303127,0.9140941181407243,0.8505364801016411,0.7865775924522187,0.729541040165957,0.6757572284980036,0.611918494948231,0.547904039773798,0.48388958459936715,0.42023992914641983,0.36794494869939864,0.31389723048334206,HB
0.8010512119546824,0.8070690398454667,0.7693474208314353,0.7726067905159022,0.7855794361795514,0.759903193883134,0.7560508411096958,0.7093272872283478,0.6223877755896776,0.5401087318827997,0.45779638151242175,0.3654927740480769,0.25957381010840486,0.17623933569965722,0.08575456672499193,0.0237090990604667,0.0,0.0030505331645409584,0.06243339856141272,0.17546461134860358,0.26089862665633756,0.3520985864892987,0.42721685955190747,0.3721299106148628,0.25339747654909406,0.18223311642523843,0.13508361821716175,0.03422291729878779,0.0020747685999999987,0.0047601827507230965,0.05845338796902588,0.14304167905729415,0.26437053958281,0.3815757143529259,0.477739872377664,0.5834500159281175,0.6882553585107614,0.8112042603958045,0.9246884241843931,0.9275413041485745,0.873807791032374,0.8233452209448409,0.7965468308755437,0.8342699785172387,0.8617831269072003,0.8764068687013493,0.9168288118701025,0.877466481717895,0.843843924402127,0.7854445003783512,0.7326637998233476,0.7241366363769863,0.7290678292177457,0.7571572057668181,0.7841471324151303,0.8190540574386667,0.7971830831436311,0.7667756990151027,0.7586442070296311,0.7557360414973511,0.728734619981366,0.7534592228652723,0.7908344494114647,0.7708188878357118,0.736216570079824,0.7153218043388865,0.6267513630107118,0.510742985631909,0.3982205505910308,0.3488560577655182,0.3777034186595083,0.4667050684131153,0.5662420560894077,0.6672667601201647,0.7694613619416799,0.8658933175461607,0.9110578651685701,0.8466131130671997,0.8277179222373761,0.8152544979677927,0.7949850566911163,0.8400836967000034,0.8797981289850094,0.8330239454489119,0.8727218148716682,0.9264618590337497,0.878261036838305,0.8269538559792764,0.8112688591185044,0.8075588175423034,0.7688951381582072,0.7551040927773167,0.7281629657106041,0.7564382460867201,0.7834662793876461,0.7768291728876093,0.7980298913028419,0.8187267786461225,0.7636141731344912,0.7354249641244213,0.7570181157103884,0.7315443931553238,0.6824572543971534,0.5912165692126994,0.47516031930238345,0.3727037247496279,0.290720845856252,0.2447172476099695,0.296619416175786,0.395488811389745,0.5132977036062769,0.6090878702581035,0.7300002619651833,0.8493282639417625,0.9086384024069645,0.8712339039693475,0.8785096326126167,0.8773864920126133,0.8387199742206537,0.8466988009232601,0.9044959048153274,0.9455853114126036,0.9760786659496894,0.959590564379206,0.8722683899285917,0.8374167830259625,0.8508274802710742,0.7863854134881381,0.7296282427642948,0.7236815892459516,0.702369707689269,0.711595237780899,0.7325360196720094,0.7577413881906896,0.7566487745668997,0.7186615479769047,0.6875041506480501,0.6207771951590804,0.5247424338289939,0.40922316586603014,0.29930817673122156,0.2796858217835929,0.33872939124005796,0.441177472995105,0.5484570412985548,0.6530578055747176,0.7678819776585755,0.8641093151197632,0.9137812914032661,0.8865062450866814,0.8666853065519877,0.8819229768306283,0.8544136465781316,0.8314315274540585,0.8718545740318353,0.9233876933229181,0.9176409616042323,0.8640288282438071,0.8284657694517055,0.7933128521423694,0.7617353487420715,0.7312886030928096,0.7405208596802488,0.729835666119329,0.7249997560016856,0.7490706156534026,0.7623647651535403,0.7703515024757674,0.7885642354703402,0.7914608500861009,0.761418884054609,0.7370921728384694,0.7206309191614837,0.6127103825897562,0.5162607777478847,0.4324520116193904,0.42586863665034436,0.5082172743227904,0.6097449314486232,0.7087019658501861,0.8180087659279502,0.9129399230886897,0.9933243990211249,0.9769437250295496,0.9789883933219343,0.9823748606698501,0.9122448501548304,0.8770634875930723,0.921649808136455,0.9311288570809504,0.9176051815228785,0.8964615852927222,0.8704174277235888,0.8296043038425411,0.8068741166827111,0.8226035963892961,0.7956664255777657,0.7931435668840434,0.789569656432529,0.7377886707953571,0.6890752274645999,0.5891700298676126,0.48413348661680455,0.3616455347350067,0.26089688758746643,0.16216097530831597,0.1474987693799079,0.2162119523087176,0.31640177618145593,0.42479173021605376,0.5364847913667568,0.6370968429427686,0.7549057351593005,0.8506840904047044,0.96063049817809,0.9365311978178923,0.8983686854475197,0.9175549883414744,0.9188683393118975,0.9166126343328882,0.8989558450076967,0.8737346780735988,0.9140775554736962,0.9270589068884716,0.8800824802442175,0.8186122097328132,0.7658290237493475,0.7210943817336171,0.6893368742149946,0.6685059828678144,0.7029147763954215,0.756537495927943,0.7908288484483315,0.8123197059656331,0.7972094214520009,0.7797422643286032,0.6949718964849456,0.591043548379993,0.4704021370258653,0.3746573717279684,0.26542575853175965,0.21141076816887772,0.23613483412170577,0.3323399120098687,0.43150092177203625,0.5445971572607915,0.6677380632387022,0.7908933141756256,0.9008569264810902,0.8840142336348729,0.8716292128540033,0.8963118210051428,0.927218101814324,0.9806292475526339,1.0,HB
0.8485474541937381,0.8632958232763399,0.8661274924982343,0.8055250450182911,0.7329077882391872,0.6564666089373934,0.5746488534640273,0.4959967897735109,0.4479726039170231,0.39846529627695393,0.3209145148275505,0.2392339102872667,0.17147539075252927,0.1812880560757717,0.25374529973906546,0.32551603150371955,0.406852897785815,0.48872087407554377,0.5692245382143386,0.6293262718110699,0.6552653829081811,0.7036033921595948,0.7662776981057511,0.8467329119571296,0.918678222434044,0.9711612732268264,0.9357588117196474,0.8914735118083064,0.8607238076702948,0.8341511455761177,0.8131699781393373,0.7791792290800479,0.7419285122247863,0.7148247195822641,0.7061300753818314,0.7435221829253313,0.7886668037681255,0.8287212277680371,0.852402285976098,0.8702904424659388,0.8631342497251975,0.8484370797114895,0.8506821646775271,0.8644225627768964,0.8759296819491,0.8194234745600855,0.7469347597146103,0.6703545805286701,0.5885275976335289,0.5067865835350647,0.4322449071486991,0.35754859771517666,0.27580478845220524,0.19531379732483178,0.14549491968234096,0.1787320426645116,0.2495522754347943,0.3259054568497739,0.40772077055578815,0.4895901018565887,0.5714594331573899,0.6533287644581911,0.7351972966704747,0.8160497554146597,0.8863087106442666,0.9299490598949096,0.8967436673851572,0.8695678965602958,0.8390779748597379,0.814777791794262,0.7824417042196861,0.7429161891957627,0.701461552677416,0.6768116856886266,0.6843121951842668,0.7220142246238375,0.7731901982289928,0.8113066030164124,0.8350285630161101,0.8556991519572263,0.8538821436851194,0.8363237972756514,0.8436111741022723,0.8619465943578555,0.8752573253456011,0.8197143474907165,0.7425666524149288,0.6705369927252702,0.5891060946136357,0.5072368481793763,0.42543896058848807,0.34970897903458775,0.27616400983834444,0.19451567414350324,0.11467227057731577,0.07115858526922492,0.11181895553890309,0.1870162038874068,0.2598817113174128,0.34147314911450377,0.4233424804153043,0.5051761542161333,0.5822196663492281,0.6545762531965233,0.7360659685289659,0.8178929514241058,0.8942705090473098,0.942137052760947,0.9131873035936886,0.8783639841193995,0.857648501245952,0.8290314675994033,0.7978788345963816,0.7584776943154434,0.7158514084284642,0.6905870840108435,0.700066524464217,0.7378618628361853,0.7910647463909064,0.840252089374594,0.8717571089002689,0.88174633585855,0.8806176053467327,0.8637136749737206,0.847861277561627,0.8587077675892361,0.8820240276723728,0.8697130700157882,0.7962049717984039,0.7143691492796362,0.6324998179788359,0.5506304866780352,0.4687611553772335,0.38693645837845936,0.31028561269802024,0.23757261360065574,0.15603843106245274,0.0757024554235064,0.028399705199382952,0.06376328535049325,0.1419052881417895,0.2136383992514277,0.29144582101410355,0.3732951506801854,0.45516441327949986,0.5366184359131876,0.6087999488045592,0.6860445065103535,0.7678879700946477,0.8495791160697164,0.9232056771329735,0.9736842712044567,0.9443515937481597,0.905402774038393,0.8834263975901901,0.8506812760060121,0.8155011368901532,0.7772320128662047,0.7271453473019749,0.6916657320593527,0.6724454143786835,0.6997511618921295,0.7488953995938488,0.7938224362113067,0.8433629619957315,0.8609406884744537,0.8645983809702824,0.8464001447245386,0.825734305569533,0.8232594646051741,0.8556437398399122,0.8774753481117354,0.850119344180229,0.7773290028448008,0.7037417796835639,0.6220853447391574,0.5402160134383571,0.4583606496237498,0.3798592864543129,0.30861507698407453,0.22749233942655578,0.14562372747073105,0.06473792510845833,0.0004235060760959808,0.004894053461597325,0.0703809475350683,0.14626785769887718,0.2280711071713455,0.30993930583009544,0.39065399263262357,0.46135228771849546,0.5407992752933009,0.6226639265858074,0.7045326070441043,0.7854365160191712,0.8563589022823725,0.9353190478039841,1.0,0.9776866804707667,0.9317376691522008,0.897455016762593,0.8793464338537871,0.8432166121579163,0.8025958636976998,0.7588031853223045,0.7126434736950724,0.6863238475158093,0.7001409547221527,0.7425012938267939,0.7914210132802757,0.8348363326999211,0.8744358053975638,0.8799319760529589,0.8711859089091414,0.8504526915392137,0.8325791191838201,0.8441610392810421,0.8623516413210073,0.8377741608295062,0.7670084806412967,0.6854400569471988,0.6035742665029691,0.5237146229304743,0.45311936994999735,0.37271495439194013,0.29084723753273667,0.20902656194514613,0.13250294027014142,0.05993316418811756,0.0,0.03251002226429356,0.1123554612278288,0.19387811383511666,0.2665151863316282,0.34325084801568817,0.4250782259552506,0.5069475572560509,0.5888168077315732,0.6702534869737233,0.7423211099638101,0.8196948183472585,0.9014835956405274,0.9690823751509465,0.9432672255310717,0.8936156209765573,0.8600674988988293,0.8289426242318272,0.8014306853763524,0.775933273552925,0.7274758857945636,0.67946756599419,0.6564298821983079,0.6665643002929564,0.7074606639707062,0.7499653494096137,HB
0.7116429497273469,0.7318404333736241,0.7319948421150819,0.731346183478073,0.7027967809347286,0.6651335287096254,0.675302908008157,0.6195675957453579,0.5396493633327575,0.4450473170664315,0.36111793796649305,0.26675129330942315,0.19476427779980288,0.11373719416255401,0.05137578528144271,0.007292678080747628,0.0,0.027453890137783432,0.12672812505877484,0.21404220730331502,0.2855390240091058,0.3435637858541325,0.3395641203745541,0.28938573524336153,0.344506201772135,0.4257750420100628,0.5277449298660972,0.6065764663837969,0.7060862846207607,0.7858833821188007,0.8629702372078496,0.8297111568097701,0.7696238719669788,0.7366833871152307,0.7735119720626589,0.8016967705536535,0.8258462874227375,0.8365877926881611,0.8366041497161252,0.8365812187970416,0.8253602476162332,0.8016076496358817,0.7770820929133659,0.7526561320241374,0.7118047788069761,0.665028388228099,0.6836945648789259,0.6971090061452587,0.7086975303726462,0.7316123747864953,0.7232666615936925,0.7116426949747483,0.7291017547177523,0.700466634578639,0.6973515835452373,0.7222438002713263,0.7656317352679753,0.7756933022056485,0.8103923590513089,0.8357377195168656,0.8183126704219346,0.8019285975031911,0.8125026895630105,0.8057126452382741,0.801740356534208,0.8065884796713707,0.7992777818029104,0.7257021558781132,0.6259340826217743,0.5525720366107798,0.5235137492227739,0.5565432863297897,0.6478272469055177,0.7313051557909995,0.8261665636393856,0.9108446036518378,0.9979166044553756,0.9697859650714156,0.941314400875167,0.9177343759984158,0.9236861115942343,0.9430607459184506,0.9703968914392256,0.9785603653107575,1.0,0.9775821979467452,0.9557761323662755,0.9035428346070873,0.8515904640783205,0.836643048210644,0.8264394176713763,0.8173949040431694,0.8126214657393565,0.8017658383233126,0.7968896870883215,0.7695783714981843,0.7970714244598289,0.855906773313909,0.8431336318157063,0.8289624721577518,0.8027604076478685,0.7909559874866527,0.7048593587027945,0.6266516234621156,0.5229510311457446,0.4287437534995311,0.39348896570874636,0.4274692722647053,0.503946413974055,0.5860138714183574,0.6895961692104473,0.7686704680886631,0.8688879744369693,0.9465846812188659,0.9873200793350154,0.9538495006634289,0.9156340727672205,0.8749767846843408,0.8952549604635411,0.9253572745735221,0.8810405427668746,0.8803901411525583,0.8889346675459118,0.8821719514429605,0.9042732849547699,0.8769526831446788,0.8713183249384029,0.8498490504651963,0.8144606403736248,0.8017436823296844,0.7897154791681311,0.7543694282687223,0.7276971088233575,0.7017623710840262,0.7268700791318041,0.7320241628666748,0.7426795182279804,0.7777068385240753,0.8013238776239646,0.8017282664533907,0.7903979639098884,0.7362510306316876,0.7376696955778916,0.7718093671066688,0.8004121552126815,0.8017343805157786,0.8020713415943179,0.8220991712614545,0.8181736509204551,0.7741379136868902,0.7936000557410701,0.8338392531956114,0.8364363384398308,0.8147840969384692,0.8013746388712475,0.7630974193834037,0.6596559858177038,0.5531628719290023,0.4908918931416233,0.4990884189153091,0.5644991922614366,0.6547887742758949,0.7337645211518504,0.8256686464319696,0.9096114386230347,0.9647415789057252,0.9174922016488649,0.8721774187409315,0.8398813410679011,0.8382314820690961,0.8669720802517835,0.8954103963988169,0.8826777736995499,0.9054948446492217,0.9067955845135636,0.9277494327208551,0.9116363485580372,0.8773693126302442,0.828058712019585,0.7776769550891824,0.7356520571061553,0.7477520136615263,0.742571335355704,0.7494555907445202,0.740887616921043,0.7345017476358606,0.7622966438159269,0.7599131388585896,0.7366321402843736,0.7639857545833104,0.7668581151241431,0.7575674336410447,0.7376050499203952,0.7808412312437527,0.7850015228835057,0.6925034387173037,0.5992917198337029,0.5123087020248862,0.40541478278785714,0.3150493569112802,0.23250775451127836,0.18062468918016616,0.20265851235261323,0.28392346873982177,0.36554469768183306,0.46411870007413203,0.5714571596005396,0.6788009052433832,0.7843218511353225,0.8642595533696094,0.9290615171605356,0.8920153676112115,0.8717530962943556,0.882492404262595,0.9063980013510617,0.9309416348302859,0.9412036741803229,0.9411971002892052,0.9304555950237825,0.9068103995802241,0.8936416665974187,0.871075621865371,0.845693965417122,0.8210101010456237,0.8006845596186363,0.7549022221241648,0.7035812586210612,0.7090759983750301,0.7316796550273237,0.7229877419274899,0.7121115185010156,0.7384897740310308,0.7942995139299427,0.8314810869964662,0.8652212669760022,0.8704828723892319,0.8389267435154766,0.7868419532169098,0.777606873563605,0.7732310770492488,0.6756667695596397,0.5969854046726759,0.4964521457404292,0.4586934373901137,0.5033132038566972,0.5734767384987762,0.6526521096344462,0.751309083038251,0.8313472607231089,0.9300841291248982,0.956753524198036,0.89512891606583,0.8837428276278168,0.9303218795319346,0.9412003872347645,HB
0.005666896324149739,0.09984317126454822,0.17470165805104454,0.2562840120656942,0.32400184671744725,0.3614234119545312,0.4064658243932877,0.42739746653505506,0.4512284293120006,0.47234875779933194,0.4880772874298369,0.5021714635975085,0.5091199217939693,0.5105787956566701,0.514279495869193,0.4682398120782265,0.45144157638964266,0.4514085757561652,0.4514085757561652,0.45140885794693997,0.4549472932002292,0.48115139419139474,0.460857303890708,0.48693165143669237,0.5029457313863626,0.5238246908717956,0.4969491736770344,0.49469659490412354,0.5231225112336597,0.5071790607247628,0.4882201553495076,0.48791556286155036,0.4711546273641005,0.48478488831260247,0.4539740545129929,0.41598394103171366,0.39075256387835466,0.3762640702298219,0.3466959587898444,0.3126305992499132,0.324261724667231,0.3197565443908168,0.3311450005313459,0.3410864907083129,0.34109668322426856,0.34109668322426856,0.3410968948673503,0.34362254755591426,0.3825593282023769,0.40284942016022907,0.3784434998086299,0.3905139689177819,0.4106025498380026,0.36854139331237423,0.36512571593983356,0.4439024291236757,0.5233440625065864,0.6250236425589044,0.7269720092574135,0.8283871416381254,0.9019114676774693,0.9258764832191417,0.8813614823134648,0.7914447714113768,0.7076948325171522,0.6241191776149133,0.5222100649498405,0.42026168845304124,0.3183181615857187,0.2214505988282065,0.14983849167174856,0.04951429662532991,0.0,0.07414788324449706,0.1522025898214272,0.24675193373241822,0.31498559116334235,0.3680825462017099,0.3780533776825683,0.39998343094365296,0.41530059291558175,0.4472171049505764,0.48572352657182005,0.4881790826517527,0.48817910910713636,0.48614430607538317,0.4391017422719301,0.41467787773238474,0.4155945073384304,0.44462371877136864,0.4514018715710524,0.4514085757561652,0.4514085757561652,0.4514407300115,0.46792527263890094,0.5140772109149028,0.5107548786726834,0.4884079183741745,0.4882054362084727,0.5020639202552539,0.5246245680494894,0.5124600179135888,0.5069800292955913,0.5044757847989789,0.4871722373764209,0.4463071752832395,0.43492562124987444,0.4512607694869999,0.4514085757561652,0.4514085757561652,0.4514085757561652,0.451408895180446,0.4554925777798884,0.485598513604355,0.49622309006777154,0.5238811777032506,0.5249439356085936,0.5179349787572471,0.4604700257288501,0.4584640978033585,0.4847552586218127,0.45012910589558963,0.4001155528193525,0.3867460949597161,0.46849703269307774,0.5430495358914778,0.6362798298593946,0.7370830682329199,0.7810678397684407,0.7587348043930939,0.6890092625774225,0.5878590752977306,0.49787583856833617,0.4202681891082749,0.3187459076132324,0.2168740396425468,0.14012549822989673,0.19340738751638842,0.2501668764327336,0.3312856396871737,0.4077627715330463,0.4710986567598354,0.4880431381452688,0.4868589551671061,0.45880405835816696,0.46008079824335457,0.5180732119289759,0.5513750002576536,0.5316747693516666,0.5246378080424963,0.5000060694501798,0.4881994439532731,0.48699022039780804,0.45913964963170173,0.4514150621003328,0.44936130233560334,0.43447498142222507,0.4511484849613643,0.4514085693872767,0.4511789165636788,0.4305805093723958,0.41466697162543653,0.4111322966560129,0.387317491813584,0.4131650504228537,0.4183229681061462,0.4486662843238731,0.45140734692579265,0.4514084914908647,0.4498476714001889,0.4214002653270992,0.41462748675816385,0.40364556087817505,0.3784199033083384,0.3908700529607909,0.4138094276901487,0.39570433521401505,0.4140030671594621,0.4421155102663823,0.453745056681786,0.4842122610866024,0.46479266757822657,0.4798333268380395,0.481310108921039,0.4238753529160322,0.435116671385428,0.4512702596810083,0.45129038225096796,0.43539410060066963,0.376561636851382,0.39617575035204133,0.4691971190869966,0.5623062186429122,0.6642024818230006,0.7464297281070706,0.8315243125099769,0.932941868832331,0.9997817492174281,1.0,0.9354603418287102,0.8340985335153874,0.7479669787778178,0.6667358656793834,0.5648928364393049,0.46294445994250744,0.3609960834457091,0.25904770694891166,0.15710860781055747,0.06698956353702101,0.09114665345202244,0.16652530446761915,0.2563122540336291,0.3391307809547044,0.37648690196107903,0.40340282628174506,0.41569762987787406,0.4458305196293795,0.4726372093320155,0.5213102913097609,0.4976292687256496,0.5202758454462515,0.5249383277855939,0.5176708553861795,0.4732095352195742,0.45151806651799653,0.4514085757561652,0.4514085757561652,0.45142007838483966,0.4601780602672463,0.48734247664635344,0.5051212451935339,0.5247403449138774,0.5249498374440966,0.5249396890842268,0.5150093351723788,0.48881502128132936,0.4881793104620131,0.4892509092425277,0.5192977762033237,0.5249443696294076,0.524946356653305,0.5211183319734713,0.49014474625483473,0.4655286644069383,0.45130665658587255,0.43557621171410243,0.4118346711288261,0.387317491813584,0.41286946457547913,0.41494469397353484,0.4382315142158095,0.4513355047648169,0.4514085757561652,0.4514085757561652,0.4514085757561652,HB
0.8320713195813347,0.8263301652942574,0.8382792112760988,0.8757930927934989,0.8986826392078151,0.9074567530946953,0.9248087653018726,0.9480101047056979,0.9785311263065153,0.91011451548396,0.822046407964033,0.7458931955750594,0.6527728184802504,0.5593283695506952,0.5176054609220957,0.5695058851959929,0.5505494395327863,0.4871120742380941,0.41720960321933953,0.34038800779902134,0.2859021922902403,0.23614157499925126,0.17404392332872876,0.18799211628118773,0.2476900364358121,0.28086584875494713,0.2715444155924618,0.30040842671009216,0.372453373565504,0.4662602902382651,0.5602889047323543,0.6540439612689295,0.7211774119420227,0.7226373810534557,0.7115582724466587,0.73613158129645,0.7375924956693725,0.7470168219061715,0.8203160563466381,0.9075611798006995,0.9813806624285166,1.0000000000000004,0.9744517016279448,0.9717687951137415,0.955095496088846,0.9619584739328784,0.9461037876016722,0.923509227067695,0.8998500375487937,0.8781456698727026,0.8707862197758143,0.8635803113043323,0.8751982993592633,0.8632529326031233,0.8720676725473355,0.8975678178585453,0.9224383200420694,0.9250950497482164,0.9411860363633626,0.9426440160683769,0.9253290004789174,0.9077620015432291,0.8559642589817371,0.8508252854138161,0.8508587020698481,0.8627674017947315,0.9052235278404317,0.9265326811254107,0.9467047532336328,0.9506578334148048,0.9758166985831154,0.9381734237755652,0.8503083913038774,0.7748472327609548,0.6819274115062166,0.5878989496454028,0.49395298509303887,0.4110426171418067,0.3302303704426679,0.23640415831503203,0.1452365780017355,0.07842472757685837,0.04467899918986662,0.08476428873301822,0.16086277248677838,0.24229963591708215,0.3362227710149215,0.43025138550900976,0.5242799130116924,0.6176393375460911,0.6946169843684951,0.7814787255854201,0.8601417653400074,0.944042818162361,0.9943916173504852,0.9775497766068368,0.9737427750805812,0.9603582262008241,0.9621692798321244,0.9520005404965635,0.9442621711657222,0.9103506502820893,0.9000950186854682,0.900056572814433,0.8999792350635034,0.8899897626856319,0.8961936920428522,0.921999738094105,0.9247085825336279,0.9334442411522992,0.9489162252765122,0.949291017192675,0.9481218522232147,0.9259211755437131,0.8815607614011252,0.8515917214285258,0.8516339115141762,0.8721025063881229,0.914958928924333,0.9345488996681133,0.9490649373020106,0.9572921491571722,0.9794744748987569,0.9238236235162556,0.8381306649396394,0.7602685746141389,0.6666744104643856,0.5726461729330588,0.48003200239424837,0.405148237935558,0.3151725026121541,0.221239397947671,0.1388434699225658,0.05921583261366692,0.0,0.012826982426114242,0.07370367402897626,0.15901995193706098,0.25216219100782,0.3285349940104769,0.4143941641870943,0.4746515489243648,0.5542132811452878,0.6294502826166739,0.7187138172799696,0.8105765684785364,0.8848834701797741,0.9704741223570239,0.9959235901215728,0.9767425351426309,0.9739106508269928,0.972819030474565,0.9537273048044734,0.9360744531432457,0.9107805079876408,0.878703106784418,0.874151095532691,0.8600160195196458,0.8674919368200671,0.8664647976733404,0.8784605623367687,0.8979735242145224,0.9056149526783241,0.9239601376647841,0.9246738071122489,0.924666492037066,0.9190713652227811,0.8751684995200644,0.8326964123699159,0.7961469890923643,0.7927284478959722,0.8101417735869858,0.8444463012513568,0.852902546915101,0.8829483178024304,0.8973252881102503,0.8871397515084167,0.9113715561707649,0.8481118693102614,0.754354901535621,0.6677507892778252,0.5903461601490743,0.49686296381748685,0.4028346765767825,0.30999807839356164,0.23501864157803887,0.14599856549321588,0.07879543286776247,0.08067634331002838,0.15013403264263836,0.23837527350214271,0.3138692494325861,0.40707959454712306,0.497885193353659,0.5725186744643955,0.6645501935084028,0.7570425463563191,0.8314699272102377,0.9086793094775429,0.9134581105505304,0.900254440634582,0.8964259243321826,0.8769024774342427,0.8754395529203034,0.8733908077624086,0.8523211613662109,0.8320675036485605,0.844898886350173,0.8375011680544975,0.8482713771802786,0.8300690965652064,0.8528348018048728,0.8632351603707593,0.8766743781304265,0.896217021350139,0.899976947424689,0.8894990183961191,0.8876348645493626,0.8966242724122169,0.8691742697398492,0.8328649208080918,0.8263973570420364,0.8413575580193644,0.8783801974766305,0.900717358030724,0.9208151518586472,0.9128569384249228,0.916467756542827,0.9530913959561667,0.9021177852189459,0.8085947589089173,0.7271237473076289,0.6449033863882212,0.5510211973489532,0.45699271158939814,0.3637198130267447,0.28812853733134824,0.19958727026876666,0.11863489389689619,0.09118540322555146,0.12760550378852553,0.19767481880516913,0.2835488752710127,0.37754129976591777,0.4715699142600078,0.5655976745560238,0.6581516527951448,0.7326471443948992,0.8196008151751015,0.8941165414573855,0.9601277631493228,0.9353585469167585,0.9247248492993978,0.924584186537825,0.9139285634790535,HB
0.8248930654535092,0.8311964528069102,0.8379738035673274,0.8638269795922879,0.893711197611611,0.8511845175401784,0.7924619509179411,0.7251496990464468,0.6574710376739528,0.6026332299597474,0.5561353564427389,0.5307394071721829,0.5022423767474065,0.43691872373030205,0.368367411716102,0.2998149097377525,0.23325200847759153,0.17402424747772072,0.10691587044928363,0.04759477390603717,0.0,0.0004578882152934671,0.05052808801310915,0.11307842795267264,0.17380252275478258,0.23760321916231253,0.29818096766643554,0.3581148587806249,0.42317871837555043,0.48999613863374036,0.5491646404543151,0.6165234272134044,0.684994810370325,0.748018943180335,0.8083283727551835,0.8536247218790887,0.8711943288986277,0.8990591883558683,0.9214917204241304,0.9482126341292243,0.9753486934280879,0.9765332430521625,0.9482783933888983,0.9071087519305772,0.8675414556163299,0.841386860112048,0.8303936022157228,0.8409613817885042,0.8551150231664255,0.8616416505112172,0.8854767807315136,0.8523569713752124,0.8214288472886624,0.8146658011836412,0.8053310790088939,0.8248754669564105,0.8472709779758565,0.8889717560444341,0.8926537753795138,0.8353944027131501,0.7726104677740884,0.7041490438541589,0.635606251584012,0.5700700978680273,0.5102298236067344,0.44223440463159625,0.3736781204918296,0.30512392853265813,0.23800486518436248,0.17889804038431234,0.1133611879434715,0.05477279603500973,0.002704431532704943,0.0009492616864754666,0.053445765115738064,0.1125957067179475,0.17399582856091134,0.236732680720372,0.2985073947147654,0.361676098493229,0.42983874457702154,0.49046289315432534,0.5549911752397985,0.622098059164558,0.6811641614933437,0.7435715959188312,0.8024713198428974,0.8533694277296651,0.8910446513717127,0.9032146490951056,0.910219637355951,0.9423843543170725,0.979500973283933,0.9999999999999998,0.9767247218311554,0.9300490365652971,0.8918663432565059,0.8661461933077506,0.8430984603027467,0.8414018203417679,0.8452762185820617,0.8646853300490227,0.8901026574964843,0.876605018381204,0.833987344300297,0.8334604527786353,0.84529294466152,0.8472146993738117,0.8620584943498344,0.8844884619090705,0.8409949438693871,0.7762852633950315,0.7160616906955746,0.6479037256232112,0.579347387624557,0.5107943479250379,0.44404614116208885,0.3849977593271965,0.3273785000754472,0.2812233729856082,0.23595511512597223,0.19344665918688375,0.1317978530394377,0.08084118269565588,0.07503798020725161,0.1235380220863267,0.18255339787397618,0.24248709356968878,0.3050183753840232,0.3667689644498062,0.42747193213647283,0.49172293440974735,0.5560756677493894,0.6168088381839014,0.6848261693792315,0.7458793131962114,0.8048820329052049,0.8554515086996719,0.8902122829475971,0.8998582102666972,0.8916741626516187,0.9198281564403896,0.9536270700869054,0.9789796216267208,0.9627466362224928,0.9279484033639591,0.8860566754319119,0.853495514235336,0.8409114366465931,0.8404136786857446,0.8488856282091659,0.869429084837712,0.8745207037739358,0.8508398220687023,0.8196122497334419,0.8346454250713136,0.8500422795017866,0.831064793588828,0.8489099678475294,0.8821257392380522,0.9269140523213657,0.9002077850582986,0.8342549758978113,0.7657049864819125,0.6976201755267455,0.6375543239516854,0.5723278894460324,0.5037904854971584,0.4352346591579286,0.3676515372268312,0.30840139055249827,0.24188375683014973,0.17660463496556944,0.12608874996128994,0.0932107855081199,0.1197936825489272,0.17904318147507547,0.2440081109476575,0.30032251079907435,0.34970417325668346,0.40736450811754277,0.47236869258292735,0.535904288450987,0.5973828837474509,0.6623874459268526,0.7223919385740323,0.78489779046237,0.8366105690886527,0.8528561592625132,0.8614577459922599,0.8784825122040061,0.9105020131083339,0.9501556096109234,0.9547361083635522,0.9298913579978361,0.8906254144831556,0.852539335638139,0.8289093618125674,0.8183671523965188,0.8249312192399667,0.8479337083726819,0.8691695406124962,0.8819227638611766,0.845987386296702,0.8267810693771522,0.8423803407208845,0.8491062971230472,0.8605564941683566,0.907636862280613,0.9263184579968462,0.875728632841317,0.8112976875824134,0.7427723804049062,0.674364319031505,0.6123980876216399,0.5493321803017841,0.4808578794201537,0.4123014570425785,0.3437450346650006,0.27518920832577076,0.20760608639467426,0.14860231423138437,0.09257046774301814,0.06843813302621427,0.10082313544953192,0.1588987179297514,0.2194863496544568,0.2785430428699891,0.3450214171378758,0.40431956690661064,0.47072125963629463,0.5376910212191635,0.5968319945274094,0.6637529424424069,0.7243754751397864,0.7888603223895272,0.849911916293933,0.8853007212933248,0.9001717833368177,0.9196851760216547,0.9411087002846832,0.9746270460034887,0.9992051993165807,0.9791312925913067,0.943063449781685,0.9033679434035824,0.8696806415524592,0.8504673119823452,0.8498234134301097,0.8678617040735201,0.8965595447348924,0.8906412470882288,0.849497275034129,0.8305385267727154,0.8434267696943019,HB
0.15519708478480165,0.14286399059578692,0.15800812253720853,0.2269468911774979,0.32206128176478455,0.42932548487931044,0.5237597808519387,0.5120127785409405,0.4762030692645194,0.511572445284254,0.5918435750717528,0.6255386956365543,0.6889607894277807,0.7748936650557843,0.8402765394046163,0.8726852480489651,0.8871145699576362,0.8888762368678593,0.8440467586860256,0.8474990292381293,0.8446077259748606,0.8378802515916304,0.8378680708747384,0.8378680708747384,0.8378682827753563,0.8393139512708707,0.8744596119518286,0.9354519306726887,0.89055741143184,0.8783363531461115,0.8868830862064581,0.8744338934604716,0.8543434396152181,0.8623780788436584,0.8665622007268396,0.810618024939588,0.8219858572445942,0.8099471327952834,0.7965467076484654,0.7745698719484189,0.7996375465772996,0.7761138668655096,0.7700740032465436,0.7998856570432604,0.805284057526741,0.8272478863359414,0.7710127826071735,0.6979973544134959,0.6915589369642294,0.7022848810482483,0.73754634978064,0.7639728263100425,0.7667883450688757,0.8035254775786917,0.8178975320708028,0.7375657306384475,0.6533524214307311,0.5467547489738402,0.4629301676041768,0.3683486849841042,0.2698822840237298,0.22071489568451597,0.23158663726243223,0.32449376914371886,0.42905029843601117,0.4964056559176777,0.5520762276419982,0.6233223785938851,0.7046296335837026,0.7356231961487483,0.788200606127285,0.8333024927870945,0.8054144853373204,0.816988799019768,0.7687271208770063,0.7682640974045212,0.7975936466682008,0.7704556010277761,0.789083244937447,0.7945059423965573,0.7663491711901411,0.7646997211605759,0.7649536255675669,0.7863248149125832,0.8315526790375447,0.8373321657725441,0.8126981669365927,0.8063167013188988,0.8126357341286834,0.8013102318973049,0.8012837708036553,0.7998803210830392,0.7622302897033739,0.7097769253919228,0.7027927861806917,0.7600141448997446,0.7836905720448213,0.7649533366121783,0.7639724988272674,0.7381873748791001,0.7347993597055389,0.7479806768377868,0.6837912305668201,0.6554580778796542,0.6731781426550141,0.7297358836542465,0.7624104846746222,0.7646990854587203,0.7634130086085298,0.7149598657699592,0.6374449255043055,0.5375346671176482,0.45897487157026884,0.3537355057846341,0.24642273399470938,0.1428824382844125,0.06591673138463161,0.0,0.001983645648459209,0.0776471251512092,0.15827346222344385,0.24341184619063583,0.315145605985796,0.38666736727075257,0.46888160620354746,0.5653041433244246,0.6229402351486035,0.6541223892712074,0.6568210557511591,0.6920197871336491,0.7011516001809168,0.6915519765427716,0.6915121532532948,0.6811594088383623,0.6459756966597876,0.6194120126188123,0.6362646888386534,0.5992469916582897,0.6095903257379414,0.6773085352482928,0.723806172163842,0.7281299197605566,0.7368312171997875,0.7637798138739793,0.7646610665626588,0.7510364683536759,0.7034456335235522,0.7048403497427218,0.6955930408257416,0.7233946304671655,0.7628029063466091,0.7432869739848869,0.7402141398151247,0.7446919630692026,0.7393575919732696,0.7866188255615061,0.8106277318991975,0.8369920719461197,0.8174011163698216,0.740952960876033,0.7150063540506579,0.6931368609283934,0.7258331874500712,0.7784312243935974,0.7917501549512815,0.7657514282277935,0.7913601177114327,0.8297277304589539,0.8812689489549417,0.8607620856093412,0.784796661083238,0.7066575113405493,0.6081963290448806,0.5272684060797692,0.4293642550593857,0.33572515100985,0.2934149557315342,0.34039103037417107,0.43126870167299813,0.5171992274538528,0.6070050259233692,0.6344784257543719,0.7008905913567629,0.7520769567090042,0.7781150391372655,0.8319516953855803,0.8093416854362632,0.8100137831059415,0.8369034475686306,0.8231858016750317,0.7772243380926112,0.8000876254192075,0.8337583975516516,0.7942783103001805,0.7697593368141993,0.8302015497288782,0.8725863055178902,0.8997538428057359,0.9110118344671214,0.9137477736111617,0.9360830224299717,0.8786174269771712,0.8506966605519297,0.8893858614136478,0.8704956412301241,0.842026498642074,0.8732361020573283,0.9097297178824721,0.9111093270865815,0.9251119761678339,0.9251119761678366,0.9111072466077834,0.9033006701786253,0.8789773035749384,0.9334306510114185,0.9802090777703656,1.0,0.9702789981199258,0.9322034062636009,0.8841978192145534,0.8486213878396471,0.8346100608635041,0.8054386284768027,0.8343156211156915,0.8729538950733442,0.8780131962766395,0.8990239141022327,0.8223261167681528,0.743952559304665,0.6665411436576072,0.5669303773451286,0.4881310191344621,0.4377840882195132,0.44558241258559317,0.5277462829015747,0.598672996380559,0.6366425008015266,0.7051321842471427,0.7632777746909181,0.7789251633632679,0.804695756143806,0.8273475855925989,0.8022952738152522,0.8000752213609763,0.7713968742565989,0.7647098664023702,0.7646413797298575,0.7488153123353296,0.7364424037096233,0.7636940789677507,0.7729965381385009,0.8431325322347902,0.8405777459789663,0.8117488685965597,0.7683315424985349,HB
0.37716853742315504,0.3218742599783555,0.24829363654895387,0.17519150068547074,0.09048553977940355,0.03144793555900671,0.02823711369310633,0.07863859136341755,0.15087955207964665,0.23549747246476205,0.30691088285280665,0.39562957857366454,0.47936393445054204,0.5517129872456605,0.6372091783459015,0.707356603260763,0.7719716199885829,0.8161914396322301,0.8472933493076251,0.8563292002350997,0.8621385050777399,0.8809935687140964,0.9014738650396819,0.9233538252536455,0.9398014489886117,0.949412913435383,0.923519036391915,0.8878216329979094,0.8638341559511695,0.8366836393173651,0.8201669507254454,0.8087118036708079,0.8198409658504988,0.8421881049635438,0.8702251060780424,0.8620944140418989,0.8364948326241586,0.8497141800456625,0.8740860502517633,0.8592837317579152,0.852641069778076,0.8106620423422353,0.7432922210675073,0.6697796296603848,0.5936691576610347,0.5041546644046271,0.41638671347087897,0.34832789883756865,0.29868914849145867,0.23946942313682174,0.15329544310891174,0.08394197187647734,0.02846314711930198,0.019275582670466473,0.06294533069553854,0.14469362023716492,0.2172474285588617,0.3063732899451268,0.3885600822229458,0.4623218317810589,0.5515974518626727,0.6412917198890193,0.7235880123960601,0.7949863824035606,0.8530911731399682,0.8829058705809771,0.9027414178864004,0.9101621335490071,0.9289751869187493,0.9485069759641664,0.9595425075843478,0.9873772972546107,1.0,0.9937166487100129,0.9656418426430351,0.9277075267416377,0.8971084290737266,0.8786537372201959,0.859790857836515,0.8654866131838728,0.8742134331195124,0.900441542766043,0.9172348154507306,0.9182331402775095,0.8862291507211157,0.9034868222197705,0.9160530875429718,0.9042740593434218,0.8899148665258241,0.8440112781164553,0.7760561061119637,0.6978269536843023,0.6232342481130093,0.5456019214414689,0.46814181387689047,0.39324272093129453,0.3194175155790906,0.24615530416157627,0.15844944847109277,0.08761101988368747,0.017925957479615562,0.003351144258191052,0.051198761885110855,0.12029490671635612,0.18605328908745333,0.23674850701201278,0.31240689504536157,0.38494124165314236,0.47406710303940747,0.5562538953172251,0.630015035203837,0.7178229765177684,0.7846697389424317,0.8347794749631174,0.8619017999455356,0.8797674925037788,0.8890932757039045,0.9047244667735188,0.9227258068125876,0.9449718838861241,0.9608203311542631,0.970605967878984,0.9491313163181676,0.921869886663603,0.8984319385004023,0.8806785674415516,0.8636605930248158,0.8378778925468064,0.8462865743353314,0.8401434780438599,0.8578060111909851,0.8816254298824604,0.8887299049710222,0.8600163554445936,0.8739132663382163,0.880297360058278,0.8742197894684094,0.8451240425836617,0.7987250479305397,0.7259289132086963,0.6525744742008883,0.573632892971383,0.4973784600115705,0.4079423833583422,0.3300004676922592,0.25685996366705455,0.1855431089792825,0.09747255297379187,0.033110831258141626,0.021088978597606278,0.06365463115328396,0.13057243274056107,0.20567382160260284,0.2887898303055678,0.36144430039696607,0.45039726517581524,0.5263994936971863,0.6061462925101764,0.6957551327807674,0.7754242584663023,0.8237216300221388,0.8543078694737276,0.8578223932788167,0.8744894357300645,0.8596779779960384,0.8743791499753506,0.8806030173432986,0.8950252321524124,0.886997734200182,0.8709549901207905,0.8564773955956793,0.8437233866077021,0.8325291208552055,0.8324116954996832,0.8367401377636816,0.8587762995295978,0.8814402983837129,0.8982058843754523,0.8743525197214996,0.8726607604381069,0.897497058897831,0.8838289444882519,0.8796204601185971,0.8472420572824535,0.7821560743336411,0.711254926376649,0.6297686815092787,0.5563007742241473,0.4774715969398464,0.40469445680434646,0.33419987620186253,0.25778668009500416,0.1799359938838534,0.09992750440541576,0.05399143500751791,0.06055278654967555,0.12221890008027891,0.19466301920897155,0.2799203298426036,0.3509584079062775,0.43922138688162704,0.518250068664297,0.5949381504479838,0.6767513547428088,0.7483584237175314,0.8132391967761237,0.8619882388621436,0.8872719532462989,0.8900586206242496,0.9018289375390895,0.908026085544221,0.9297536625938716,0.9524326264966367,0.97829513133268,0.9991063644618983,0.9946647681291445,0.9662822159370608,0.9317587290327465,0.9073416954678639,0.8811611162074904,0.8597034014890017,0.8563604739740072,0.8573753684516467,0.8782143164552867,0.897941096244065,0.8676027143216203,0.871402776597682,0.8786002082201918,0.8598176920007012,0.8535897063960105,0.813162794420375,0.7402923064922078,0.6647786675550047,0.5937653897040169,0.5104834818362596,0.4398507039746802,0.36176028046906117,0.28686360979932113,0.19742060291845087,0.10925189885170905,0.04212751127377601,0.0,0.017958468003035577,0.06861908982288156,0.14635238745797574,0.22040107654401986,0.30203760017186543,0.37926634585266994,0.45772713935078135,0.5462377840042829,0.6174833680733869,0.7004512482672904,0.770569534994646,0.8292512374858765,0.8518518163082889,HB
0.5502069112068109,0.5591862778307592,0.6089382839487578,0.6751166692865553,0.7112450462649889,0.6855294191627481,0.6367385376308461,0.6116063634257125,0.5680452084794514,0.5782411281320752,0.6262892639261166,0.6613884007839823,0.7056671563382297,0.7268211985255955,0.7738866526767041,0.8262887788161646,0.873234702156066,0.8812550551870479,0.8660301225344125,0.8520626806587213,0.8396761363171688,0.8442205433571071,0.8352317152462738,0.7947531317865957,0.7699602730730788,0.7481592166114199,0.7541179915819269,0.7737910749126227,0.7632476315981835,0.7667130029408089,0.7823140079673501,0.7936921202680185,0.7823696656056909,0.7704339577485275,0.7837907118540504,0.8109007851763754,0.7841357444600294,0.7155747132457602,0.6510714526382351,0.5894677361254621,0.51991682177072,0.4558325758923678,0.3938212973344519,0.3241834849857168,0.2563111505051674,0.197058896922639,0.12886218163213092,0.07598156307309467,0.08265032009653495,0.13807618336630556,0.2021328055413063,0.2718434247412316,0.3359314942075442,0.3979156087036859,0.4668403785836759,0.5263268932194143,0.5914414477652621,0.6502754584078845,0.7100184871809285,0.7699723927546065,0.8117178277645707,0.8239648791299883,0.8221623104315292,0.8143101857873314,0.8322106592779066,0.8523716595555817,0.8130504389114692,0.7757129012703785,0.7408873972795715,0.7102984889303501,0.6890643884079484,0.7057479270615932,0.7209169230416108,0.7398874378032654,0.7585720049786928,0.7865306419615921,0.8141017412888034,0.8230468321309032,0.7924619867908442,0.7936075253599897,0.7782968586293977,0.7827139433456096,0.7999499557942908,0.7504765888740021,0.6912943504668021,0.631554751377039,0.5846824213807384,0.5377957736141656,0.48138646793018536,0.413617918164108,0.3439339649464084,0.28174182954543747,0.2178812197750919,0.14870683072291113,0.09141515092589603,0.07569375729069971,0.12686041706419604,0.19624184293906755,0.26147633065132325,0.3224486703683709,0.39194297403858247,0.45893695564864134,0.518579107950597,0.5861617021661305,0.6452770372114844,0.7078856674290039,0.7662834830436098,0.8199722826705449,0.8684531268195534,0.8884155305203822,0.8716759053155425,0.8781785660097017,0.8791369725361229,0.8675051145113157,0.8419160104336505,0.8089845686717034,0.7757042348171506,0.7768364237469048,0.8052399377142929,0.8298112132622799,0.8322475362916044,0.8392963143873258,0.8515359527200188,0.86554442423879,0.8837133172482516,0.8976149881603075,0.8863212708320798,0.9100534309771009,0.9325388264033265,0.9189296519027488,0.8577156535049626,0.795988128839827,0.7263677954379977,0.6565375607447146,0.5867073260514302,0.5169611395377371,0.45342588216759006,0.390880891407702,0.3212007471284024,0.25147888047576683,0.18862275621902236,0.1368616974660537,0.134073934143784,0.18824450121826963,0.2471257160744027,0.31556740506485137,0.384608810400771,0.4440706855518348,0.5112488468305569,0.5809672899008544,0.6441130875842556,0.7059497744865555,0.7640372496925953,0.8199167709491928,0.8768401713281972,0.9293093068026621,0.9514802232953994,0.9391284034402958,0.9614921912666159,0.9885425135054031,1.0000000000000002,0.9877020880904392,0.9516023346364724,0.9191479432613259,0.8827108916339219,0.8563160104939282,0.8580997689045893,0.81031856682545,0.7563889171544809,0.7080278865333474,0.6654172629397428,0.6448338727583371,0.6274349426556698,0.6436324761584704,0.6762545696004076,0.6950166760046723,0.6728241265530659,0.6448940837506416,0.6440080409762243,0.660293286668572,0.6581622464242576,0.6901053685052074,0.6957217944101195,0.6445108854079524,0.5795113045725293,0.5197469009229494,0.45056799201668163,0.3807531011153462,0.314503230542019,0.2543484780948224,0.18506146276073476,0.11525281806277943,0.04959616719215387,0.0,0.0027876241382391864,0.06340056545581563,0.12764832171762808,0.18943192354092298,0.25904952308974183,0.32535658322242567,0.38538938926694777,0.4547391881042868,0.523702591500502,0.583125748473243,0.6480940162428512,0.700254732157702,0.7481172919725088,0.7525346659227308,0.7553976824799957,0.7604667727695766,0.7794854708715693,0.7960068045273421,0.7886071830946026,0.7689408690871982,0.7637440658290051,0.788996726188149,0.7867883031203904,0.7893251431000146,0.8024594534045508,0.8103203335008009,0.8166561730974744,0.8239160604930682,0.818489827795368,0.8174534586278022,0.8451638268797363,0.831075406186218,0.8119033038288814,0.8132382932537838,0.8124457225220472,0.7757201620024465,0.7115843087794691,0.6508899908419108,0.5818559141296895,0.5213687121857451,0.45558470167791487,0.38577610768262516,0.3164232982983455,0.25637887110745816,0.19008751328508477,0.12267563382353242,0.10058414547301453,0.1494223524572773,0.20992526325787253,0.27894712691621315,0.3395038548737752,0.4052449219971752,0.4737461708084174,0.5329840912922414,0.6007189105145951,0.6627332975289437,0.7212729266387081,0.7766942137150357,0.8230043337236166,0.8568334443973973,0.8910732936596808,HB
0.9761675202682998,0.9406059556739166,0.901798543652629,0.8682031892229776,0.8461493741205501,0.8352539106804173,0.8350809951799778,0.8484164462663502,0.8763555750102743,0.8659769829095367,0.8214739300676852,0.77180386127887,0.7225149532251234,0.7108179680771678,0.6769105488075,0.6107007942212532,0.5431405686371953,0.49970917240315527,0.495473245753397,0.5184868531511624,0.581425516797158,0.6472411777520923,0.6913960830812935,0.6805040519051451,0.6235641703868451,0.5585997492362218,0.4903489174705411,0.42707203854107534,0.36565495849300644,0.3051445429804569,0.24289019759380603,0.18436126691456378,0.1261302994408955,0.06801433026118642,0.016123649839378418,0.001457069509972042,0.04144407157190133,0.09985118921729308,0.16774651478774927,0.236083435906,0.30350851747618757,0.3629053202169654,0.42786392361681513,0.48707095135343215,0.5507537060211858,0.6108251589028528,0.6747009140723139,0.7349846590293332,0.7939310456609685,0.845462042263361,0.8885983442964416,0.9030389760155915,0.9240953884978649,0.9495838052722902,0.9786233780714313,0.9919793973779196,0.9691768427097758,0.9268500815866378,0.8770209894489778,0.8466120288658647,0.842528442263297,0.8287591103457626,0.8316400264598904,0.8503926110134468,0.8675567336465235,0.8380837195599962,0.7891395971017123,0.7366295329818224,0.680285896452453,0.6217259936597173,0.556787432451425,0.4960725592257593,0.4317377607164614,0.36658251680726406,0.3067947518322085,0.24652435040258136,0.18774044741272444,0.1333480563470768,0.08728806288096935,0.07855356453153184,0.12097068197713945,0.17739508398149573,0.23746962913449043,0.3009308156761963,0.3692080326644336,0.4365183944678277,0.4957912208578297,0.559560885320574,0.6191228709916636,0.6797663928969335,0.7404773367634887,0.7988951574867214,0.8511401999462327,0.8857392848035146,0.9071066712013973,0.9293308252676473,0.9486513080060814,0.9737585181694257,0.9674655460998483,0.9321442483481635,0.8942624242199431,0.8596823312414306,0.8358246707528483,0.8319666637156524,0.8297254891999144,0.840089050227331,0.8618470549292478,0.8522820938188356,0.809572207126585,0.7599184350761872,0.7029147761521786,0.644117347474457,0.5821895574446467,0.5230416743213078,0.45955888117562704,0.39922405007427364,0.33562672614338473,0.27454877514619724,0.20691362560512538,0.14704232154078056,0.09007112338290124,0.034375364351248994,0.0,0.022657896352715312,0.07803417538506197,0.13909138524797782,0.19294435530234244,0.24664569731632424,0.30626948024974787,0.3713292772357766,0.4396435517981554,0.5060436000256068,0.5653750305500069,0.6301257314595432,0.6896226066959839,0.7502422848489045,0.8070489293947469,0.8589813736899674,0.8913194661812915,0.9072346926669965,0.9312118832010503,0.9619405301022481,0.9726077309729688,0.9595986075266385,0.9323858872975515,0.8950235774670632,0.8566087201281145,0.8336623722164722,0.8219063743295807,0.8281259783322605,0.839172037587131,0.8559160900175025,0.8296968281743902,0.7872025406561804,0.7363319222022084,0.678812948397683,0.6202556791844205,0.5556373025780532,0.49620162382613575,0.4312656515383517,0.3724182590924108,0.31670482005670153,0.2721029788142968,0.21560239097209233,0.15143144958404964,0.10332444373874106,0.09897946091665566,0.1461146770714108,0.20580007308199888,0.26956238024003554,0.32960738551800306,0.38851202224463743,0.4506984068942548,0.5105529044601416,0.575917613972434,0.6441489248916021,0.7069136670803895,0.7638885645637923,0.8182554042233907,0.8641144059741945,0.8870862554767633,0.9090042435293815,0.9293570345398376,0.9506922250289205,0.9639109404101922,0.9379643865439693,0.8995169412560333,0.8669347928799871,0.838293769558174,0.8267995423709658,0.8217695866445625,0.8289683815747182,0.8494555219506137,0.8611967356249743,0.8221501663568382,0.7737624839152331,0.7228173446064949,0.665595859323604,0.6050290300757282,0.5439806777868788,0.4846818210746138,0.42238499844860944,0.36196183694706674,0.3004418917757725,0.23985175078336862,0.1802594265325701,0.11354537621464411,0.05580064828108,0.00934227766444029,0.005842734342305533,0.056259387892503954,0.11545486660118365,0.18136128918837557,0.2406502029344555,0.307589746089834,0.36903620023424377,0.43228020102446685,0.492941799519508,0.5562558535126476,0.6154963485781588,0.682079742983243,0.7498146587164292,0.8085781063000692,0.8609067577596705,0.8973049577229926,0.9247269147190331,0.9533603770620163,0.9803306247744286,1.0,0.9906925483781395,0.961575846268707,0.9265336586664485,0.8918214937575568,0.8606951287010398,0.8366505693421875,0.8284015176363795,0.8373855874930078,0.8596655778395865,0.8635475986202246,0.8190070929172781,0.765564659864751,0.7147463083900265,0.6564412777501976,0.5991850298090482,0.5404439171212199,0.4774847233007051,0.4163302044999253,0.35371752024002445,0.29658742976565344,0.23788194619135417,0.17883697746771698,0.11959430944127925,0.057339474399507706,0.00894635023539525,0.0065120215633389655,HB
0.8288774922969186,0.8288774922969186,0.8289295341575715,0.837456898313143,0.8637338776216192,0.8819023079235047,0.8733405337871578,0.853063191173514,0.842449921498202,0.8452746608410933,0.8507059446795626,0.8319231906715339,0.8053563487760305,0.7441498437776177,0.722122041884528,0.7113735448545997,0.6554234221449233,0.5742231839569705,0.49257759793785016,0.4109355525391116,0.3326591869804232,0.2980606474458858,0.2844471951046783,0.28991418173948835,0.25592927562323364,0.1758032764976014,0.09453299061529563,0.03337405381396907,0.0,0.020966952489030355,0.07204221969063962,0.14473846182515704,0.21041199345219708,0.28912940921755004,0.35210359546035663,0.4318206223277521,0.512067677220656,0.5754900131501306,0.6532812194495539,0.7175349890184366,0.760521217949516,0.8051444178633247,0.8393907308125503,0.8672734005858667,0.875601085601164,0.8917123840736059,0.9166800518864262,0.9223827371971729,0.9423383420257703,0.9658388191431855,0.9809306888717932,0.9884977637041756,0.9684283574543637,0.9474036706624576,0.9269611394418931,0.9068027758707942,0.8984138417188796,0.9032350702587943,0.921373173496296,0.9442491974536744,0.9702403906178456,1.0,0.9874378746229939,0.9483546981779942,0.9602467254017752,0.9677854234625518,0.961235591718784,0.9439662812585565,0.9157556607612625,0.849121227040448,0.7852342722674099,0.7058616414038381,0.6425949051591302,0.5645836729557963,0.4973086043738948,0.42572244763732847,0.362609615238346,0.28572914042199793,0.22261627853136545,0.14427730865914778,0.0917731356630136,0.10621430333063309,0.15233555649588304,0.2198897039041574,0.28731066370365443,0.36785160672740735,0.4319041701757693,0.5088365726886379,0.588189930900247,0.6510677844501589,0.7300484843212725,0.7955394615231608,0.8604485362816212,0.8854637534369911,0.8982851580281221,0.9090137283851982,0.9213756846472867,0.9265061644212307,0.9438509827265555,0.9450282790307298,0.9597894055911125,0.9785326974431086,0.9754008486440133,0.9799815657565087,0.966028845928403,0.9459397187320859,0.9253589439410357,0.921518776762007,0.9215128484322235,0.9239055486608492,0.94665886996733,0.9692461617866792,0.9927505960110756,0.9941234060626192,0.9710550371634241,0.9754618591889885,0.9906666214834856,0.989277799722565,0.9671525406035406,0.9260460618941617,0.8648332715359954,0.7925896619223027,0.7296241748918457,0.6505995130519304,0.5700992877440929,0.5065350601566636,0.43320058904499703,0.36983177509568943,0.30548161050756484,0.23068094251758575,0.16708061549499753,0.12095225294042367,0.13271130399323017,0.19046677047649618,0.2627171430697346,0.32906500604619016,0.40748508136437644,0.4705825503054424,0.5505196832408563,0.6304233493674825,0.6936002303767461,0.7718874248151009,0.8376362707846652,0.8921431171977323,0.9367753848228717,0.9434418305379064,0.9261373357049214,0.9402192711012973,0.9446685072054932,0.9446707316455045,0.9446707316455045,0.9446707316455045,0.9446707316455045,0.9446692034733015,0.9416305888216363,0.9232002361430616,0.9215126602312775,0.9222359155392672,0.9391817039441661,0.9446611741089885,0.9447264235937594,0.9540914788250823,0.984448152578377,0.9587356591557072,0.9447408776860007,0.9379260519432422,0.9117655447641635,0.8984375573680734,0.8814174991958921,0.8160439752459427,0.7512279945798368,0.6884320250645057,0.6116278417786223,0.5484388692063074,0.47025109111246843,0.4034975275596886,0.34182402580027516,0.27125366028079867,0.19561317482142337,0.1344158522409833,0.09338684184890722,0.11411495860194298,0.1820446703591756,0.24612790190074918,0.32206536368734584,0.3860213077884662,0.4630509033511485,0.5380246201621603,0.6035727997538727,0.6823459668530694,0.7450756895809794,0.8079528006416199,0.8361419192976283,0.838056958687972,0.8517114874965901,0.8520049817782609,0.8437293361035509,0.843995390914769,0.8537592845672948,0.8722651212219947,0.8756079057924273,0.8907145778843009,0.8981389934911568,0.8850134915856849,0.8750677153190591,0.861501919326054,0.8526415717859215,0.8685273495669086,0.8752592972890705,0.8863546220571883,0.9179818807423756,0.9378322082515536,0.9254828796821735,0.9017561952647157,0.9071839714989696,0.8989105263450843,0.8861809902513773,0.8743654049344052,0.8484996534809843,0.7791045817687783,0.697556343563055,0.6199247643636667,0.5563029963115196,0.4769608058636554,0.4138781151987221,0.3522707096068558,0.2771945414790782,0.20616346696792887,0.13696371982676503,0.0681288814731249,0.046697063036523545,0.07380064223268512,0.12573486549839785,0.19851075036099264,0.26156721921312975,0.3414470278823645,0.4178599183054912,0.48233255560263055,0.5632341784972206,0.6448792717034131,0.7245742449918886,0.7840871251821113,0.8258671330264242,0.8496732630363266,0.8520349465646784,0.8520335257610747,0.8474553517136956,0.8397113966623624,0.8653614579050823,0.8853038317473803,0.9008254905812172,0.9196382233526506,0.9214820534938748,0.9131945250041831,0.8986933943001163,HB
0.6067642387602352,0.6230598134484966,0.6312956124580789,0.6361634242221261,0.6172637497487754,0.6051350929056993,0.6241071973367456,0.6385377048873748,0.6388006633502443,0.6202168191388586,0.56919671954368,0.545167762834351,0.5211121192742401,0.4628337213373124,0.4006353230737365,0.34923465194048986,0.32858630796779864,0.2808959096004937,0.21892780391540412,0.16214814071942518,0.11959429818102452,0.0655537488180653,0.01005796056338526,0.005926539033187961,0.058223316110112,0.11294608827818475,0.17172671996307587,0.22777580540591424,0.27811231468236897,0.3361825303033814,0.39321565341100717,0.44970173098861466,0.5118934387065659,0.5726885133954891,0.6263863239268634,0.6872728118132856,0.7423345961113648,0.8001807715397007,0.8540555757581338,0.9125946454782263,0.9653075639854656,0.9899617421675213,0.9431856919736683,0.8813592198394016,0.8264992552728851,0.7760194291821023,0.7222482273255579,0.6709473251083475,0.6314548613707587,0.5971710252423481,0.5690357930683052,0.5395059458061096,0.5104904065957081,0.48294243391446545,0.45870096496274915,0.45459079737122665,0.4756434529775624,0.5084033971785422,0.5479702590187485,0.5880882634359337,0.6140341104949993,0.6315186680854359,0.6371730415869141,0.6448623733342673,0.653014904194859,0.6470206213414675,0.6488807491191577,0.62310017419945,0.6116736447887117,0.6276474288183376,0.6360407638423471,0.6376350689495918,0.5841283650122981,0.5243026410274645,0.4701802970566413,0.40848445901173225,0.3461834231176508,0.2864830380904346,0.23225966069909343,0.17050518007064674,0.10835545330009211,0.05321445919070711,0.020915551377602704,0.05133214117836227,0.1121454742365231,0.1707943556495295,0.2250871239306469,0.27872346791314695,0.3358963062469409,0.39037066086453165,0.45191770377075424,0.5068063200738897,0.5655777982135148,0.6237826289280541,0.6788085780578934,0.7333153221638691,0.7921826081996652,0.8483696217987076,0.904657720587545,0.9436641625009026,0.9211100978463449,0.8710130707515065,0.8109644317999987,0.7544372305087184,0.7026774361469761,0.6567046709099675,0.6157683194760393,0.5846204004204618,0.5558915307426824,0.5288160991970257,0.5021444182068062,0.4796686822149352,0.46480280944632946,0.46988352409869716,0.50148204932315,0.5380921735271034,0.5767839064415035,0.6099034460320996,0.6310016631180724,0.6414148933145825,0.6425516387082753,0.642612703176078,0.6471079234996993,0.642502469782714,0.6163792261355328,0.6153555268304831,0.6339033212831937,0.6486751136646018,0.6206113739581276,0.5596242389332515,0.4979662569593075,0.44395491178085145,0.38395051993530616,0.3216457917230784,0.26007444417549364,0.20614446018162935,0.1463296967686727,0.09998416361003737,0.1104597961043976,0.16009464048435285,0.22088793689270658,0.28316649713943565,0.3414974990336985,0.3966699041263926,0.4528514660067755,0.5098529807860277,0.5660919173884338,0.6231919732288991,0.6793323687700927,0.7366337698855219,0.7944853369383806,0.8501111066755356,0.9074047362050304,0.9441891086541312,0.9202126570347398,0.8711906813655608,0.815887938419475,0.7618160354957884,0.7048066875000516,0.6584572543124554,0.6139808563639011,0.5862166441867593,0.55998476072656,0.5341807793433286,0.5054907895258811,0.4779352502131433,0.4583809312893037,0.4624012780365434,0.48738822677981464,0.5199509267165376,0.561224661296011,0.5963669373732492,0.62328683730614,0.6311867662975974,0.6312836818159051,0.6312831430574424,0.6301917145417821,0.6114196140292538,0.5990876087170074,0.6092449824871511,0.6198127359467931,0.6057953065822999,0.5476886733462567,0.4868948385770069,0.43320030394688147,0.3720241854858417,0.30971625902233635,0.24906144078607628,0.19533030080472202,0.13405343012073723,0.07420517409650551,0.032324135345361604,0.04737051425049188,0.09859333940009307,0.15986721406805549,0.21801660426393532,0.26837109049551366,0.323076381303961,0.37660619856539235,0.4376528713690353,0.49899090993421935,0.5527403525911914,0.6133223946501736,0.6756313623741306,0.7379288584515429,0.7973498002508062,0.8515800410329568,0.9069086228908416,0.963384649593849,1.0,0.9667762387091972,0.9138086516125838,0.8567205413588113,0.8045400965644447,0.7526710831766223,0.7008122533830909,0.6501855814164836,0.605628065756586,0.5710118370435158,0.5466280319840784,0.5246664947061337,0.4939201016156243,0.4665737037050448,0.45198901518667234,0.46332122139690557,0.49235893856689317,0.5309825379329458,0.5656805189918965,0.6027968407531936,0.6307084711453499,0.6419800895089842,0.6449727803257921,0.6485168776877621,0.6470568389054083,0.6510171943774348,0.6354498732779024,0.6136770546331412,0.6270653844179808,0.6503977327330062,0.6547646390166675,0.6298369364747145,0.5851928125621573,0.5328064072202956,0.476627812054895,0.41445070258428185,0.35213856547705946,0.2898264283698371,0.2275142912626149,0.1652024843621922,0.10354368697210159,0.04959736691659766,0.0,0.006870847155443505,0.061184952993667,0.11893060982933723,HB
0.01284527562453519,0.0,0.03765947658444535,0.13552529690975756,0.27246795324687145,0.3894280485678552,0.4617531457394186,0.5677115871109519,0.7075981034576522,0.8093397422531616,0.8200506193044204,0.7649665915417261,0.7860913620652372,0.7296118618992855,0.7260033885483912,0.77621212885684,0.8580295476132838,0.8821441548996418,0.90676563095007,0.9613348953965959,0.8894472026246447,0.828389834314228,0.7196457914892527,0.6337654235506243,0.6179095082605093,0.6599918774497988,0.733871186419961,0.7032907485553519,0.6490640242363623,0.5780827478657153,0.5092001756528157,0.491494982258998,0.588143167305418,0.6870941203590784,0.6225532818269794,0.5515057671848966,0.5526861946064399,0.6376629911318794,0.7007156146848121,0.7552391512643091,0.7422845954656418,0.6677992878169077,0.6931227233454207,0.7198839542813689,0.6647373095643987,0.6905407582576641,0.6664527215272278,0.6836813289212618,0.6619749069969645,0.5940977349450955,0.5814943844865939,0.6499898438059502,0.6338477087093812,0.5766610574051354,0.6229237095637989,0.7251528606770137,0.8509029607246257,0.8733378967327026,0.8372000186931405,0.7826371942433337,0.6932736394311982,0.6098772954439724,0.5885117818890828,0.6546697638962042,0.7639388161234972,0.8167557542721369,0.7585683636151517,0.7029282307423852,0.6624506562585433,0.6455505070634944,0.6179814036134852,0.6287483060679468,0.5977010683620065,0.5808503430868361,0.6384239477640907,0.6910077495981817,0.7647068955164995,0.8535069023638231,0.9110230503732275,0.8785683369213002,0.8406115332342523,0.8540959521904332,0.8680660915940557,0.8481911314246604,0.8503597084721735,0.7266304177021334,0.6358909555451264,0.6259368073829545,0.6977331534911384,0.8172582781678015,0.8504078625210747,0.8061650435270398,0.8565274261860809,0.8192955981382193,0.6909793241400246,0.5970443075197585,0.5755465963123942,0.6434647286211375,0.7485690996650325,0.8842820125908446,1.0,0.9970901429036196,0.9380099305474028,0.893893915041768,0.8278854609162813,0.7950471771353609,0.827098581928996,0.8719169410545513,0.8026180689787186,0.6960878810278635,0.6172250598623705,0.579753135224693,0.5870727088801679,0.5357634784148102,0.5148981465371154,0.48613752982740266,0.5240266106107558,0.6063187318359793,0.6775184173724531,0.7594687096095445,0.7425735585167388,0.7102367628997817,0.7344494022566641,0.6742572875157631,0.6241773667675732,0.6704459003316883,0.7583434206981314,0.7677406298027867,0.7789860378410465,0.7533644368845618,0.749727633566045,0.7497259983130888,0.7452387928177027,0.6566074113811098,0.547460904689979,0.4526550892205492,0.47928304851923986,0.5889966089463758,0.6968744912507958,0.8260210777390302,0.8940795279496578,0.8552765858609348,0.7624026822006975,0.7089548360694433,0.7064039105341227,0.7421321683831437,0.761643939052429,0.6992135645678115,0.6281101238706022,0.63849308035386,0.7311078994208389,0.6629508563313466,0.5780653170371863,0.5359101546573246,0.5857561104594229,0.573498985308845,0.4924430659890442,0.44831202848870966,0.5255555891823187,0.6302241382849978,0.7605281864614764,0.821260065809839,0.7502577108274044,0.6707163592663985,0.7020796831215614,0.7705219212120298,0.8230298198370987,0.877137277512043,0.8832080267976146,0.924544215517165,0.9669226755050895,0.911705568943483,0.8092197598356661,0.7374633078438029,0.7288293940725206,0.7784347751910632,0.8373554078386469,0.8757576994512197,0.798637360878578,0.7610585785509896,0.8104816369413275,0.9202868924574714,0.9180014506460283,0.8653426111528768,0.7980757065771842,0.7564981199037719,0.7961096399038121,0.855430437643526,0.8803762801721957,0.8270053042181091,0.7999632245035748,0.8673126769497168,0.8458570311071734,0.7683862493881843,0.7054797474939285,0.6638368556336411,0.6905664027189538,0.6478696493329412,0.617889708292692,0.6333299952735221,0.6995579687895566,0.7474547063394601,0.7647162751930754,0.8699317445858403,0.8600191323225079,0.7989730311563319,0.7771137776312056,0.7757611038822185,0.7700785605182974,0.7468229786911493,0.7051177712311363,0.6394396839962777,0.5762953884522357,0.5943314623036029,0.6545265753340495,0.6045289377304286,0.5439870103346705,0.44180447391746647,0.39895288219076086,0.45328412863842793,0.5584205600306378,0.6945679984990214,0.7761428076133274,0.7229693589593893,0.6297990346441642,0.568845214519472,0.5321354504667388,0.5671180565932357,0.6566457664754495,0.7255138085756965,0.7067456297717731,0.6282795651903017,0.5742992596385728,0.5731895065313823,0.5657247897887103,0.5216984964702736,0.44860125036271636,0.3690351088142485,0.36316240988756476,0.43468681117005303,0.5192016673954729,0.621816402327509,0.6893383466231917,0.625345333186698,0.575704556696035,0.5741733014802524,0.6067706770130483,0.6494925454200002,0.6834772231326331,0.6593498593212272,0.6107562742150394,0.5743650363718755,0.5956609418844527,0.5833197497707117,0.6033820777126033,HB
0.8769766270472772,0.8685775710074086,0.8687632178625959,0.8795057415092842,0.836608673009338,0.7539101797331567,0.6732605076055966,0.6204757377567001,0.5457403397120508,0.46029575722202587,0.3613869621623831,0.2613203398591395,0.175033066707865,0.0902734265680829,0.036331284391493135,0.027478909777125082,0.0825592777116011,0.19735913033907604,0.2839386928855605,0.37601404113578063,0.4572470748079498,0.476712016752991,0.5564140912121518,0.6639194428282273,0.7433471983034892,0.8194173978590706,0.9059550779125489,0.8978522425645741,0.8606015803881473,0.8133516609834981,0.8145540220319596,0.7972508014049149,0.7422040282859079,0.7583906161904892,0.6810774697688187,0.6389951566148513,0.646065401523745,0.6460914961451998,0.6432302222404953,0.5913981574176166,0.47241109482352783,0.3480374150677452,0.22366089740247297,0.10134228934476486,0.035615385052019555,0.026079555474062488,0.02967042008715204,0.06943589403321582,0.18349873554883178,0.30785605081521616,0.4322332342416333,0.5553932674689772,0.6289113299691156,0.6226685390286528,0.5751626696913288,0.4896841854285334,0.36984425640226526,0.24604809110134163,0.14402486693073335,0.04251321339136549,0.0,0.055618785005272287,0.1716402102311223,0.27476321626535505,0.3871981075310531,0.5040745651123899,0.6032929387777788,0.7253021659665997,0.8004046026437148,0.8302461297888364,0.8095992618060404,0.787500032407972,0.7680645017147762,0.7853757923570424,0.7722587727027825,0.7915438680875564,0.80608987379693,0.8423516895016361,0.8678468109825417,0.8558331598022759,0.8049741230735137,0.779260898404937,0.7674798432570951,0.7674253603337942,0.7617761042774491,0.7492985277524395,0.7671195868642,0.7670541473647026,0.7469149142449503,0.7351345604558315,0.7513297014940887,0.6887164331359186,0.5871303110648363,0.5197618476886161,0.48019439546823595,0.4140210093696197,0.42076771263065194,0.4868501324473611,0.5748459680722906,0.6753109152941636,0.7651444946174104,0.8004188098563629,0.812932534709728,0.8342941074561239,0.8233088748260364,0.8032961826204206,0.8368249786752138,0.7685418902203427,0.6701852972740472,0.5524974211503793,0.4281357924921956,0.30386045080012014,0.1959515734276156,0.11080895727144213,0.12504571659008334,0.22567994156244442,0.34643407272682847,0.44376127204842586,0.5645662123574438,0.6707600159215943,0.7721906937765146,0.830084194496763,0.8427121909078945,0.8390010980286853,0.8348441868729948,0.8359584113253709,0.8602917740482985,0.8688330351303533,0.888988675123251,0.9110364269450999,0.9342141312057333,0.9093362622970513,0.8787765057045496,0.8640152605310982,0.8371653742310814,0.8325968453020822,0.8135369280652798,0.8351708162888487,0.8462203596261242,0.8351645361195796,0.8484718646528142,0.8682009667395727,0.8625183371265779,0.8245933242287675,0.747223497909463,0.6552531788401277,0.6043035091619622,0.577871672289719,0.5363644439479707,0.5663947948932675,0.6637542468850048,0.757361700752452,0.8333648806017644,0.8731407291547093,0.9015674281624495,0.9274739162495962,0.9114146551940179,0.8462041665790974,0.8648923773842894,0.9547122031111153,1.0,0.8936647151672359,0.790000968986651,0.6781377866770919,0.553834731321655,0.4294593650315415,0.30845765984739426,0.21425568921604032,0.16588398847582297,0.22971162734200412,0.32687098128892433,0.4495344327050059,0.5676633779341227,0.6660976379681731,0.7846427481070473,0.8559496719843711,0.9007164329362869,0.9022453826722812,0.8970512816704312,0.8532959586270588,0.862257306238523,0.8685388654182358,0.868830737069338,0.8886143207408201,0.9107162758433409,0.934286399184713,0.9017400297634222,0.8553874444279774,0.8351087002017694,0.8318157631953964,0.804931492364509,0.8070355444591693,0.8068485349986645,0.8011711725260122,0.8074046054177657,0.8064778213859309,0.801144234152317,0.7936961444097816,0.7262903325155836,0.6361223588391773,0.5860002899702508,0.550321972301318,0.50126499509099,0.5265021430050245,0.6132564490949353,0.7117098384650085,0.7947358419779977,0.8595096813102163,0.8909994084525135,0.8996629902058197,0.8584424240302821,0.7972970115354618,0.7807376022890375,0.846314554582535,0.8626434542608781,0.7521789966704535,0.6546424158937691,0.5342709890476973,0.40989556793019144,0.2855223634056774,0.16625401564357034,0.0914098211216583,0.09521554624071626,0.1936040950905289,0.30072759285098183,0.4247618902389352,0.5323533829266394,0.6397949451451863,0.7425443470860742,0.8248003248822942,0.8677145663959784,0.8685384581290645,0.8613400190518226,0.8174705102350668,0.8422606519058418,0.8449168309916191,0.8597906617084323,0.8688047679047255,0.8882399663583875,0.910393712336492,0.9315501395966281,0.9019040982370052,0.8499257870310721,0.8347244991862723,0.8173390392303093,0.8014655067202954,0.8162559867391588,0.8315014701489627,0.8084875873850308,0.8195288139802548,0.801571146760395,0.8010651983078496,0.7808651437879934,0.6850785353638837,0.6204300839420567,HB
0.7319359042096152,0.7451922349849727,0.7916785066776866,0.8216805643538496,0.8422237117316853,0.8999667442956802,0.9377484005015746,0.9505079919068038,0.9593185620983609,0.9593914647441766,0.9502216672208603,0.9671813874814603,0.9685296934983842,0.9637086423446095,0.9860780098445745,1.0,0.9892013389041772,0.9652013065870042,0.9250427496032687,0.9059838532475668,0.903429057471167,0.9033455549905725,0.9201183038526057,0.9483714333409696,0.944450246106225,0.9171089113577384,0.8776625090060572,0.8783316188658623,0.8941167509026116,0.9019695027642016,0.9027831538959887,0.9104072695654155,0.901680217703055,0.9210133747114195,0.9052152232510764,0.8509565640271282,0.7850660451605118,0.7195447669312474,0.6649572935152226,0.6019668487645524,0.5363478501621755,0.48137377951971283,0.4188740592397635,0.3527093795138778,0.29091617498329536,0.23541233166213815,0.16960282197626197,0.10505204727709572,0.051193299356020905,0.0,0.0038558797346091023,0.05977962621254851,0.12580552685474444,0.18478080749736092,0.24289676861776255,0.3089080639791679,0.36851478811562166,0.4260113534986658,0.489616669710605,0.5438234310872843,0.6089587764283166,0.6744262865340409,0.7292067745503092,0.7920542504959234,0.855822994175711,0.8890060209887003,0.9038881080664471,0.9129210977376534,0.9047165208463994,0.9158277637870604,0.9340045094931333,0.931246196406649,0.9454344589663362,0.9640744308197275,0.9657120825560832,0.956469672501945,0.93084363312281,0.9074221533468334,0.8840614167768415,0.8721817048737588,0.8825447325813083,0.8906325954084067,0.9212341340775914,0.9126663825218477,0.8869511776546215,0.8712304349241315,0.8852499670825256,0.885460817362707,0.8873967733661026,0.8872885145838789,0.8804220000987817,0.8719318913445804,0.9038707392157566,0.8913464395695847,0.8395239522329918,0.7818673946467465,0.71584159086922,0.6527703259014923,0.5981421232125679,0.5327464753378659,0.4665614252436847,0.4037681957571899,0.3489496364090845,0.28346379948520073,0.21727196810021576,0.15118923048651567,0.09562612174461238,0.0865102609959254,0.1304211018964183,0.18384265821433776,0.2485471277388107,0.3147189120408056,0.3763328274569564,0.431980697966011,0.49144202466675635,0.5486702294878705,0.6098107676401763,0.6657751196876314,0.7316124228540986,0.7934398098662063,0.8412435251764525,0.8807672583486639,0.9088255461754775,0.9124861684651631,0.9040776866429452,0.9028370244198953,0.915131044530705,0.9326686353666527,0.9420566338172844,0.9523328846441479,0.9684166211033336,0.9578215588672507,0.9313021156511878,0.9054219304128619,0.8848493395811383,0.8800005386357967,0.8986110061381716,0.9028404370931495,0.9110287264146733,0.9217484364132877,0.908759721086771,0.8953677844914303,0.8872507277836124,0.8853783385277265,0.8960151440902182,0.8889152305543613,0.8990262584997586,0.8995339165183798,0.9010504754609125,0.8833383170752338,0.8268334823247234,0.7607752655754574,0.6945832438717692,0.6283912221680805,0.5621994958245473,0.497094758520801,0.4428975149770791,0.37910425063619835,0.31292075695715593,0.24991781657276535,0.19988177908942362,0.17361289701446703,0.1967157394621264,0.2549901761635076,0.30908044925806943,0.3707373740958677,0.4253242667896213,0.4908455839238526,0.5570364209148444,0.6218755452078661,0.6758253250946518,0.7401292696650743,0.8048332388978667,0.8484540956989419,0.8964795929700999,0.9058559656530134,0.9042025247755423,0.9052281325597735,0.9134169029320955,0.9167855755308318,0.930429162510277,0.954191104169253,0.9597824763034075,0.9477436291829613,0.9227976921115784,0.9001165916606553,0.8792614679253274,0.8723653586850255,0.8904128335795818,0.9057522368400015,0.9261171767460983,0.9094068093603043,0.8855564720995339,0.8818731331810912,0.8892740620768449,0.8884378022532107,0.8913859119503331,0.9031366422656149,0.8987583860222954,0.8983232140666328,0.8850042588093303,0.826939114673535,0.7608228298754414,0.7011351762164906,0.6436913041467309,0.5776844827997207,0.5114924682418422,0.44530044653815226,0.3792593703044753,0.32182297692251516,0.2621498692413946,0.19601783023172858,0.13052008731364229,0.07604841640831217,0.024978283346777763,0.024970923983247184,0.06977191388707404,0.1304567674637762,0.19434302440853735,0.24851171445338127,0.3134366014300043,0.3719972767079496,0.4305224468540798,0.49545651726568796,0.5494877721379217,0.6135157605289909,0.679705165860248,0.7455394022602766,0.801161079682899,0.8576009445019013,0.8998874325612896,0.904768440034164,0.9082183480387229,0.9278367050333403,0.9245289090529458,0.9197748569962192,0.9507705937553133,0.9612829411664778,0.972577809747619,0.9569898116669502,0.9336080420883768,0.9009317808441613,0.875070177684933,0.8676636858120377,0.8724371772819879,0.8823886882023753,0.9215087084619258,0.9189258442313979,0.9010594125347073,0.8738296887681942,0.8703942982240003,0.8878029942841699,0.8936429364808798,0.8837267094634917,0.8941294705546632,HB
0.6021064670440348,0.6083859385830848,0.5905748027513762,0.5285298224178709,0.46831256790638887,0.4099495330046654,0.34476477825959573,0.2808166712660485,0.22499840630376466,0.1610390321689068,0.0969140286398964,0.0421574820533106,0.01172617677353105,0.04571172994757977,0.10747121025711182,0.16343950229847914,0.21392330179187313,0.2714357001321266,0.33193699637133456,0.39726205500844713,0.4619921967456888,0.5183072750838829,0.5786535735354865,0.6275533216339291,0.673073681501867,0.6947406371970655,0.7290774731810501,0.7383732252732687,0.7076789848099911,0.7414602524886269,0.797940197434627,0.8544476512256567,0.9005430379376385,0.9258613320166391,0.918585110904915,0.9072748779074231,0.8888589399810611,0.8581406391998876,0.8241336238087056,0.8158318458300624,0.8174445869365257,0.8325903828402133,0.8604366633322813,0.8954808338497824,0.9283208378004912,0.9581633895334101,0.9830359751904487,0.9931436113833174,0.9776847850886614,0.9423330881849494,0.9134187352432754,0.8911799399760716,0.9116715012789143,0.9402275929210837,0.9487739649284579,0.9606539385371227,0.9626620963235195,0.9118440563670729,0.8473435861539753,0.7911355995168239,0.7282289945005513,0.6628831379146491,0.6009522252686097,0.5440656122998468,0.47914377717508483,0.41385493458585,0.3541950873890698,0.2952905344393786,0.2300653323207773,0.16803672017550686,0.11136490933858512,0.057798503617207286,0.058479184094158976,0.11298989319514874,0.17823195445486695,0.24360113468738342,0.308970314919901,0.37433949515241727,0.43970459331862455,0.5030870082371075,0.5590458246946262,0.6234322748282266,0.6880318768893301,0.7441141601542534,0.8066114976287222,0.8631117977968634,0.9188497527076847,0.957905850421352,0.9710615790763037,0.964271426169468,0.9431721004697093,0.9157263273191509,0.8892774088594126,0.8640463629336657,0.8497502247966164,0.850816339169165,0.8767527930909049,0.9028032015692735,0.9331509305200851,0.9601943844853225,0.9806643847314678,0.9862296483974202,0.9995924570680301,0.9790091317557719,0.9368412937935353,0.8984710283540822,0.8957373596488003,0.9218365425219821,0.9391542310786278,0.9713635693953535,0.9999999999999998,0.980778525585327,0.9391848726011924,0.8879669325970936,0.8268526946894934,0.7644826843355832,0.7079511310543734,0.6431879913691749,0.5823921581652152,0.5245607532612517,0.45942748040848636,0.3952276788322677,0.3394054772278159,0.2756998005205571,0.21046929842244566,0.15172118646857724,0.09300569672723058,0.06368717567259718,0.10516989435935198,0.16941571282009638,0.22668576948184138,0.2881131539395383,0.35345632464722976,0.4187025873081134,0.4776798814881278,0.5372644684223118,0.6025260289757095,0.6639348282393327,0.7211760064808608,0.7810271874353485,0.8311823546123851,0.8555618048406066,0.8425903469237188,0.829409429192377,0.8001700658598587,0.7705219925623292,0.743568276745566,0.727875172968764,0.7505420642971194,0.7812720463231639,0.7930740188412129,0.8242086926593439,0.8469787121349619,0.8734842171063797,0.8964163005194352,0.8918158321740777,0.8743144933689468,0.8470553792268565,0.8152387339466887,0.7889778055547041,0.7964374144392525,0.8014714495279875,0.8100605704794006,0.8033668563284,0.7533651495884095,0.6881698388838626,0.6228256152169669,0.561345623336607,0.5041154042186011,0.4390772703482395,0.3738188252212027,0.31466071310840626,0.25526726321246684,0.1900078096230957,0.1284301182435037,0.07144773189153675,0.01901259960387236,0.020883478269269506,0.07575380474047111,0.13215636184374535,0.19697843925637804,0.262333265539914,0.32463512641961123,0.3811998203146518,0.44607089975293457,0.5112209813225324,0.5692122277137108,0.6297996845321203,0.6907019101247549,0.7433184400828967,0.7891439009734551,0.7980025599621379,0.7889323422150223,0.7573839015066324,0.7507477684043526,0.7643188211698819,0.7708924380503586,0.7680717714365646,0.7899350558442058,0.8232390497203779,0.8462699886814133,0.8671401240964769,0.8809182958334303,0.8825618781389191,0.8656493623163006,0.8338833112543445,0.8165267935224065,0.830131825825229,0.8642496225843426,0.880792541503373,0.8846395659506532,0.8958847291551908,0.8731909005016318,0.8193133845640796,0.7555989652789143,0.6997539431031199,0.6361526254733758,0.5707941441747184,0.507863920250831,0.45170618407133656,0.3870631756920593,0.32173146965930677,0.2608527054665204,0.203096964774651,0.1380017843777277,0.07680926803496746,0.021615874255510814,0.0,0.04145389091816787,0.10586978163312777,0.1712385206112701,0.23660770084378657,0.30197688107630305,0.36734117945266287,0.43047222559178766,0.4865621842491128,0.5510658757836873,0.6144603375222986,0.6704007411541393,0.7319195775495217,0.7875709425240518,0.8420300638898139,0.8865042871309632,0.8946887937415611,0.879376334358952,0.8598955440908591,0.8437747092784542,0.8179834586079855,0.8033887674421101,0.8121334117985461,0.8239716126834249,0.8471709709304724,0.8783517627330777,0.904643631597897,0.9149691512880909,HB
0.642832376477712,0.6514108745989309,0.6616016753723781,0.6694639195059939,0.6696101214417962,0.6805933981232344,0.7039395374357555,0.7115191197076833,0.7208430061476894,0.6950132887687959,0.6497773453886349,0.609435285258118,0.5559360983816308,0.504386657595616,0.45336280865777034,0.39106159658134265,0.325454182338099,0.2605979959360094,0.22216901291244584,0.21364494471918016,0.1755277504209043,0.12648072973374092,0.08276095206900669,0.07770817370415228,0.11633285636732671,0.16179965641045158,0.19605749115690863,0.20555274981129745,0.23828903332467677,0.29131261423206123,0.34064730283857925,0.39112389765626343,0.44807970760468896,0.5031795171676716,0.5685824554563359,0.6274466808051442,0.6768335939204349,0.725934962326094,0.7629994294941307,0.7674759353944647,0.7792118488501614,0.8010153013277694,0.8228972038848545,0.8467656957091707,0.8729978432742627,0.9004599389659611,0.9261097643049019,0.9339016200470032,0.9026194377308236,0.8623071624856484,0.8223590326340933,0.7841353756281753,0.7448839230597613,0.7044032643997871,0.6710486067879242,0.6520516334393922,0.6513559512757783,0.6530380522522665,0.6677148349715485,0.675296430874528,0.6887035692449941,0.7041821731257798,0.7220718956473497,0.7403983817605542,0.7406780063428089,0.7231969410207064,0.7049744641364994,0.6894189956110397,0.6879007022146668,0.6992148513423646,0.7057748414601264,0.7088876242349289,0.7186298746121706,0.6916818478351954,0.6552054258312969,0.6115576449475268,0.5617799764014451,0.5060598994555408,0.4494118592967187,0.39419444053406716,0.3373973285819223,0.2861976982686798,0.2247158983348556,0.17380615563209556,0.12293392519782786,0.093856716489789,0.10205530453092448,0.14673573344227364,0.1996501656351728,0.23215642337515252,0.2476486377091911,0.2800160513561569,0.325005426228417,0.37540808946501647,0.4271947581187252,0.4880068774910762,0.5532006090419386,0.606431285931802,0.6608532421813016,0.7099882279620857,0.7493243442258879,0.7823035688454083,0.8041732943269495,0.8151584929976954,0.8301353295169713,0.8520054761518989,0.8805864103295926,0.9050673495130179,0.9301095867049067,0.9550223163278675,0.9363519318142526,0.9000909749351429,0.8618391779510501,0.818618428124227,0.7793917532260997,0.7367324089324518,0.6888011539762866,0.6576761253713639,0.6408563509739102,0.6333574693011119,0.6428369759629025,0.666856268907424,0.6712059898168201,0.6801993506842536,0.6698662905030712,0.6695025408387241,0.6702234051932416,0.6837856614508859,0.6764020417990673,0.6695488420638789,0.6686056334802117,0.6488113398480602,0.614948312422988,0.5671246557379233,0.5177831103311372,0.4652969750279232,0.4058731609398727,0.35237849063095616,0.2940074910719166,0.2394600062339891,0.18214331674177897,0.1286930185101225,0.0791795792027572,0.04094034334086727,0.04255739993311236,0.08532714071239944,0.13703008698398866,0.1912329286276333,0.2337212796737811,0.2528194311284011,0.28091898893661416,0.32476638639792776,0.378138795939416,0.42930270739661713,0.4858401317184846,0.541500131997513,0.6066135146654719,0.6600710613466507,0.7144131766560293,0.7578510814342239,0.7843431942014214,0.7980530322116914,0.8138470181852564,0.8357156311433198,0.8563464325326944,0.8874278459918794,0.9164317359237715,0.9483279360069785,0.9707525061713782,0.9623358345201471,0.9262251394314909,0.8873024030881025,0.8469460925702701,0.8135771983929612,0.7797585952419999,0.7323031227400585,0.6891636631660956,0.6581185285971793,0.6462798379142414,0.6389395387561803,0.6510542170941482,0.6577567227418872,0.6801632194151122,0.7038502544005545,0.711174762617576,0.7092694146073022,0.6786926450640944,0.645452946425245,0.5970930383517543,0.5476915992857525,0.49824359038543964,0.46115242824264113,0.4091903601922171,0.3463513303029191,0.2952171405663999,0.23411380418990957,0.18264284489586613,0.11786658174881426,0.05487274520487073,0.010406711376072408,0.0,0.025663146651415225,0.07133617058634201,0.12469077655746652,0.15883885780089857,0.17929593688870415,0.23195421506898573,0.2813880079765121,0.33369974578690353,0.3843941737607084,0.44248783704921024,0.49563339856553146,0.5494317688869352,0.6069312754373541,0.6577161481683169,0.7101993812879726,0.754020157513573,0.790751843374919,0.8115870600142787,0.8278986270261313,0.8398004153355658,0.8664396240084509,0.8936947766065906,0.9329349400292553,0.9682152658607102,1.0,0.9976395071288691,0.961411887765049,0.9223824849977507,0.8750733311480019,0.8344260971099828,0.7763549367680933,0.7379631138351486,0.7003559326169397,0.6743996284802067,0.6490720831372032,0.6447622896147958,0.6621458930914006,0.6477092485747327,0.6435171151814245,0.6513133861929661,0.6519463150728106,0.6651326215350686,0.6702404571435303,0.6829709153750119,0.6721666251130145,0.6677190658370828,0.6401596609907219,0.6162578410901305,0.598567983000577,0.5972013886736836,0.6087677022233668,0.6150422123050205,0.6183981271152774,0.6323839090169328,HB
0.7481162039780056,0.758303409975785,0.7723732558331919,0.7555429261304982,0.7279621235819649,0.7219576982054376,0.7515465919837103,0.7855105045616435,0.7872941370874833,0.7864913219622833,0.7782758427342262,0.7913763289055176,0.7878497957237633,0.7176732508993537,0.6588417768166526,0.6480721290630798,0.6173217621439457,0.5453805518588575,0.4696700606029025,0.39399483907299704,0.3280465308487286,0.3086290689915585,0.29723147535686545,0.2567966070216561,0.18899089762058408,0.1259684688785634,0.051421652558709674,0.0,0.01667088147998408,0.07642649417619252,0.14647241892037544,0.22161973696496684,0.2843095155414517,0.3549406233196799,0.4299295521955022,0.49219406911261876,0.5632170902841223,0.6284083406632361,0.6809605372355203,0.6859536019695249,0.6922467707844744,0.6996290470608777,0.7068671006758152,0.725550078699023,0.7447386808757863,0.7655125634668578,0.7608515606598454,0.7737238697490105,0.7847639451600594,0.8201129070405306,0.8433113286421188,0.8272610670875236,0.8001513436364371,0.78479135129218,0.7660973010804737,0.7553491654334592,0.7423680673437194,0.7370412185786002,0.7435468730786812,0.7435090724695161,0.7146773785820297,0.7012711216707261,0.7194009401863766,0.7487049349825199,0.7595463002042924,0.7707513006514377,0.7617511685619744,0.7981118670657028,0.8292198648531888,0.7724410086649254,0.7087753660528722,0.6393699466260272,0.5637016514931963,0.492431081016524,0.43020706520982355,0.3553244683770327,0.28889754159221814,0.2223561165105843,0.15218235346889886,0.09238162644372938,0.07010564082993431,0.11179910575428798,0.1811106173066892,0.25680518916527273,0.33251976675953143,0.4082178654584476,0.4791730218446979,0.5408758097924982,0.5943954768217754,0.6412388296157614,0.7054364428777404,0.7307743858991942,0.7102195042190078,0.6978996557881123,0.6829173296335642,0.6714117070559751,0.6697101857789711,0.6919310204850166,0.6853574951155825,0.6946323665628844,0.719659883821191,0.7486066662413924,0.7817520440597048,0.7778575130867158,0.7446966813885352,0.7246821392719651,0.7023293421427681,0.6804361802437362,0.6644952511833826,0.6477117139969835,0.6273404782247791,0.6278085232149206,0.6491064183651889,0.6833886727996736,0.7295452145399159,0.7611516363305313,0.8066905099346844,0.8570940984903399,0.9100515510417426,0.9586688589460723,0.9952604272395575,1.0,0.9817600210557971,0.9607024682154663,0.9555062713326814,0.9779368058088798,0.9232062513817687,0.8612669793461549,0.7863686548200337,0.7124996100072467,0.6514860902880231,0.5779095779322034,0.5074890066256303,0.4446473488850864,0.3695615686238769,0.3043701317944225,0.25116871325580625,0.250283276712183,0.2970164521682266,0.3701326855334761,0.43706997416237403,0.5031038415558386,0.5786994962611183,0.6521861880971032,0.7132243715032733,0.7846719047821686,0.8415672084704173,0.8491662476015036,0.8218430383081001,0.8061561970841127,0.7773656642255911,0.7468305877593875,0.7203352169524013,0.6951323830111082,0.6709072582099394,0.6750464162419147,0.6851635278432124,0.7123720643146987,0.7546263505641941,0.792717619210332,0.8392712937853068,0.8762574633268843,0.8744609093890823,0.8827724598774536,0.903438380245245,0.9285786204267592,0.9523493578767468,0.9452010297739646,0.9133004769057793,0.8719085388748642,0.8443899667770021,0.8137746165408495,0.7917382226326355,0.764707397491017,0.7601883294185501,0.7884265160266124,0.8182255123407951,0.8349251181831967,0.8396345253009598,0.8149553680697523,0.8278250428012868,0.8762757800851744,0.8601664119999177,0.7860974470112265,0.7193488305517977,0.6531034974912346,0.5775303824562319,0.5018158048619745,0.4261012272677167,0.350388222829189,0.27714568054855393,0.2163373827622861,0.14194442468322332,0.07315705451533638,0.032443124755978214,0.0481076989632645,0.11134900904098055,0.1862869920314867,0.2486831375574563,0.3197174394070901,0.39522697296010856,0.4606228671031172,0.528247194343439,0.6029063298719421,0.6634082955203109,0.7160622981159093,0.725654895611366,0.7257521073998126,0.7183761993688229,0.7183121797913166,0.7221036833476377,0.7266130207094581,0.7348795393986012,0.7460045122425263,0.7648371531539935,0.7857564167980873,0.8092586406465125,0.7907898486877216,0.7660242411744576,0.7471333527852559,0.7373594769291154,0.7479490458040323,0.755576984783644,0.7503569194608923,0.7374724376732558,0.7346267698042066,0.7141974593057161,0.713787045722885,0.7384350940969235,0.7581892008700426,0.7581184378371582,0.7439926636005749,0.738995891198631,0.7604791548732397,0.7724889053525774,0.7138065200981742,0.6383179289372962,0.5670612566151538,0.5048271155308512,0.4303757233929617,0.3678235997173971,0.29706006842463184,0.2220030987319661,0.16003303950952485,0.09117574543619211,0.05443340851705525,0.09039949254935031,0.1552314044255536,0.22069173765871053,0.2962567514155441,0.3671960383615458,0.42959609128817755,0.5040639547414658,0.5664054838718409,0.6319187385043277,HB
0.17770963395373185,0.2374989784147341,0.3058063284492789,0.3639312722736272,0.41828167549426043,0.44045007696989424,0.42318924868106444,0.36432635050277007,0.297491109250267,0.24056774983292595,0.23865101901925723,0.20771619813633313,0.19610904188423062,0.18162164748623377,0.1369621486089283,0.09001152096004983,0.055933718851826075,0.029238303861250703,0.06313325304195505,0.07647358105563073,0.07820033625286982,0.06859398659166205,0.06576394135527641,0.08006633574352007,0.0863760254560022,0.13435283018786048,0.21682702880923044,0.31134965471043996,0.3957631017741141,0.478610438607018,0.5730935958627823,0.6594028739990323,0.7383466263885996,0.7940610705145303,0.7702012753322398,0.6861768460707154,0.602194056243218,0.5189995727710457,0.4244356045837958,0.33015595986128776,0.25027261349164975,0.1627759503691606,0.08286847412838139,0.10046407297238646,0.1426294471489178,0.19096457910392228,0.2478844641592124,0.3065862761493152,0.36577907620025574,0.4228327995833543,0.4550346674877632,0.4244243045503313,0.38270797114979027,0.32600144930615516,0.2671217195329092,0.21076621037841825,0.21968577013562873,0.2380169245737096,0.21736710727261066,0.17886809669451686,0.13545270355484895,0.07896561381084144,0.02762930787085649,0.03220207194835334,0.05454606172959853,0.06375760327470248,0.07557385368344782,0.04785315998516548,0.03404988655352925,0.021903636708083596,0.05783851128919437,0.10251945021935738,0.1714405144581983,0.2606641003957715,0.35088449102440356,0.42876885107047036,0.5221453002670016,0.604570990479461,0.6792391983520938,0.6966820285312725,0.6285833253258959,0.5385538375458481,0.46112410697200445,0.36754982009277315,0.27282878406876376,0.17938705526932575,0.10177661343792987,0.01515845692429263,0.01588413047694681,0.07781769523387716,0.10627920823789028,0.13994876602820705,0.2126334301751247,0.27078243612675434,0.32666902680488175,0.36914664384569473,0.3710689073743825,0.33117737322814467,0.27395614800591783,0.2098946652478566,0.17129050692926784,0.15342170829293567,0.1694007443554968,0.15860699672651446,0.11381053112768758,0.06522921875976939,0.014305603011358858,0.014224739152054688,0.0,0.010092088641759034,0.02340175566773839,0.039684507510920675,0.057260978293391496,0.05183683077664902,0.08291965962264847,0.14785245129035607,0.236499784252318,0.31407608034213697,0.4075025837704387,0.5013040132802251,0.5791719212279869,0.6675765521433279,0.7367796287740189,0.7485116694748388,0.6880858011535809,0.5954228076451402,0.5162755077531136,0.42785298501194235,0.33315376435401456,0.23843231855035718,0.14374892873245937,0.0662464753748262,0.09031089482505328,0.1089269408042548,0.1356919510070944,0.18874369648625366,0.25365238670715406,0.322859829670882,0.3496740635690405,0.3244860130186491,0.29094162498209597,0.23441337568469667,0.19158772060245077,0.14660009722786604,0.14239546295545624,0.1502745929004523,0.13043052974078106,0.08892579730566919,0.035333354335817635,0.03616553239419895,0.05666178534653277,0.05221691733357181,0.09244264559091331,0.10942839966908702,0.114084395987895,0.09143751148192081,0.10028984581574285,0.06991657405923313,0.10838089603980228,0.1934667862648367,0.27134074980461653,0.36490137030281344,0.45649004110829905,0.5334877241676494,0.6265792694309349,0.7205954842250657,0.7994584916153524,0.8880258429740291,0.9671914837476745,1.0,0.9497139976073985,0.8701244803130939,0.77591548966359,0.6919518014673418,0.6086963698155925,0.5141306256696092,0.42103908040632554,0.34404139734697514,0.2524919839126598,0.1650499138552206,0.10838895939663029,0.13887402128493642,0.16389207387556226,0.2255049814311847,0.2932634528521496,0.34443449629876,0.39654189440787624,0.4164234656973216,0.3809700260253992,0.33346372196797525,0.28024274471863153,0.23775405664442983,0.21323090319260984,0.23652466902781066,0.22313477398813086,0.23691481423591743,0.19603594034907967,0.15608755958921794,0.11338522428965625,0.07280169203265885,0.07910595685895183,0.0979020963369206,0.12071039875833334,0.11470278888973962,0.0946455611563417,0.09724460948727565,0.10284208829615515,0.1293341772951564,0.20648296716297132,0.28894721199099926,0.3734634628725635,0.46809213686760565,0.5628135826712608,0.6575051517671682,0.7450466460414766,0.8234658340776919,0.8827367397968287,0.8647588525627947,0.7997288568434984,0.7093889005394018,0.6154190619896163,0.5366130971910907,0.4477011141905525,0.35342546397309915,0.2734080268509982,0.1875360992445163,0.1470961775884918,0.16020028341247228,0.21387563762654693,0.27083804270658707,0.32195848282510786,0.36326912195475236,0.4281641238730476,0.452413854681216,0.3958440893896946,0.34376659318244984,0.30121851946873424,0.22938008068910687,0.1950400978031368,0.1607995282993513,0.1637990384202448,0.21508409531872674,0.2295082448576231,0.17380181723916488,0.12164244311630679,0.07553662015597062,0.027644691064944826,0.008271799889928655,0.019674557406053506,0.019403581483960153,0.01436798485801516,0.056293013523112556,0.03782127404995972,0.030870651138685368,0.027621593962469326,HB
0.6035046468727339,0.5860063789528753,0.5218282319542149,0.4481769241818012,0.3744904149013546,0.3008039056209082,0.22711739634046202,0.1537098759836497,0.09606209028999424,0.09476729296531139,0.1469433685922823,0.21374635244302476,0.2639177430694555,0.3323759363135119,0.39517308926244454,0.4634742887496299,0.5049765970589453,0.536182089646078,0.598642095022565,0.6508673248698569,0.7009353093383754,0.720555239960152,0.7610777171092586,0.7834799006437156,0.743128551614139,0.6923159945107862,0.6308544361875141,0.5786094137538609,0.540146367355917,0.5844098612230508,0.6495600254960741,0.7158188912998142,0.7832310298035103,0.8464954495541963,0.9003982912860085,0.9152069300714822,0.9238887326982808,0.9356567669675095,0.9561213255402594,0.9614199505048016,0.9379667513489578,0.895293438241102,0.8573690331785231,0.8170893021322045,0.7862942973578482,0.7525910790923265,0.7453841749681771,0.776617661067269,0.8178576544548075,0.8616759593748962,0.902133774260643,0.9325006607967261,0.9438934137895962,0.9368637276983047,0.9435347098001643,0.9298467145203333,0.9160507734997212,0.9073057557677251,0.9235694305400293,0.9343285287664769,0.9611394040615655,0.93343107118481,0.8650341888391055,0.7971601872609286,0.7330918981277355,0.659727430284869,0.5920192861681051,0.52778211681347,0.4543431592680307,0.3811750879936435,0.31852744860860716,0.24924444661156597,0.19116211373925762,0.19246491379221764,0.25216921638994605,0.31789772065985544,0.3838280007140742,0.45742627681114567,0.5310264202872024,0.5977636765191472,0.6629203837552449,0.7360888588135566,0.7996531936172022,0.8646933844290172,0.9172308775889977,0.9382369019101418,0.9413315289014437,0.9325139663195501,0.9442088837563898,0.9466372379678714,0.9412987796869741,0.9144678320001589,0.8779354935758577,0.8367008369497999,0.7969966485502897,0.7918992103266864,0.8172003115987436,0.8453210575527621,0.8800684191966675,0.9144821294872039,0.9300100078224565,0.9440744642591985,0.9463305626762304,0.9359336532000906,0.9208909038896749,0.9036406040446641,0.8999310377774357,0.9112956514209329,0.9276083555263879,0.9215296286268291,0.9393489738720879,0.9715369058004211,0.9868796928331027,0.9703684083162181,0.9105099744489176,0.8433645246957864,0.7704655367189537,0.7082615261382281,0.6380856179941443,0.5644104555572336,0.4907239462767856,0.4170374369963403,0.34335092771589326,0.2696989216029788,0.2013900837964191,0.13795486006965763,0.08070397743416668,0.08278845751890329,0.14310300030825762,0.21169562956820998,0.274945007278961,0.3482839157848783,0.4218762175647741,0.4884265882142509,0.5537618122545307,0.6269206507301,0.6903485520101953,0.7554540731255306,0.8146638425516264,0.8681574849158091,0.9241098396601262,0.9552200474802943,0.9741993192932672,0.9909171865144233,0.996865237669611,1.0000000000000002,0.9695973364649706,0.9361392611445691,0.9041160014309175,0.8650092543335706,0.8248938383187296,0.7927726392786012,0.794729418585298,0.8284558443480516,0.8659112603584871,0.9095960458170145,0.9378904583566305,0.9688653423743327,0.9681543778519621,0.9536660778744068,0.9444289423213015,0.925599320967778,0.9153760669072681,0.9165827575439127,0.9249241688144083,0.9211453478096996,0.8973302546567508,0.832532421107804,0.7603398504841146,0.6989109660093538,0.6273028985711668,0.5537618122545289,0.4884265882142509,0.42187621756477234,0.3482839157848783,0.27459740650443054,0.20176951409562816,0.13979671547490424,0.06934610640092465,0.007127282015245928,0.0,0.05463173932077203,0.11884188610291169,0.18616905934913164,0.2597973034694321,0.3319897721135643,0.39346268715600785,0.46513563630329613,0.5382714792138448,0.600858118422076,0.6704825001554389,0.7439911641273771,0.8059780558094187,0.8559377703268944,0.8899347131787125,0.8931166659387741,0.8997459809262953,0.9097490261615986,0.9183370923086438,0.9229196940712667,0.8988500137374384,0.8588132614074582,0.8129460344913715,0.7712611640188423,0.7406115158156206,0.7171213057439647,0.7387770962432196,0.7737264375858162,0.8139395062177261,0.8538480247389815,0.8782521099244851,0.8957834135060458,0.9121969166029185,0.9254774180276615,0.9249540057016234,0.9062082318918552,0.8899802053714787,0.8749768165534528,0.8715906208898765,0.8864721353111651,0.8472448757230089,0.7842125299177016,0.7170802739428865,0.65267422436681,0.5794543542005497,0.5151784939366062,0.4475157572483146,0.37387379139272947,0.30022602712317337,0.23207341699077144,0.16858668427733492,0.11933939931340398,0.14005534793171837,0.20677498196674415,0.27533787604363313,0.33874932994699347,0.4121044489273553,0.48568890901109074,0.5520523940781008,0.6175661349225632,0.6910166956863819,0.7571931770098412,0.8223101422292667,0.8828147101946031,0.9186367620261955,0.9294152107366285,0.9173464375748346,0.905258845438419,0.8997064064310816,0.9084257881255844,0.90031572359549,0.8658784375958251,0.8353626797113833,0.8084069262862947,0.8080129280459578,HB
0.19696560270623475,0.15712612657109037,0.10747280647397073,0.058097099687364206,0.026352694432828727,0.03543420000346842,0.08129170311156919,0.11437107375104993,0.14774796180638283,0.19598296442417418,0.23596402837016583,0.26931424765186307,0.3095575926456231,0.3387560933953635,0.345486209848894,0.3727906237838283,0.38749609386681794,0.4116431134663543,0.44977358581636917,0.4868497955064317,0.5606147902978291,0.6324733042021577,0.729433411686653,0.8048882040395293,0.8932523758884319,0.9836895708812952,1.0,0.9489753555423261,0.8758097944248959,0.7774347179649297,0.6789578784839341,0.6050298686385345,0.5150183065200462,0.42529003632645335,0.37202028809614607,0.35270948175333494,0.3741900459119334,0.37450460995530044,0.3745046168959467,0.374265535977373,0.3548909175471753,0.35238037378707787,0.38470581536518456,0.4103075330555743,0.43689612331582683,0.41281537176799965,0.40113995770965793,0.37529974516253617,0.3745046168959467,0.3745046168959467,0.37450440913927885,0.37211923264211233,0.34388701187105486,0.33254888712573916,0.3056314605588035,0.30411526962937696,0.2762154262313654,0.23533637246099115,0.20177134902226967,0.14976856694016316,0.09576457955691087,0.05716706554545947,0.023960384374730914,0.0,0.04096111241985767,0.07541630981314729,0.12042679845174398,0.16380680131591152,0.20075173253348844,0.23698995302522619,0.2684761629779029,0.26978560028031495,0.2733976806551963,0.3020305132956187,0.30605786150432124,0.3423518505911005,0.3911974416886661,0.4298948084833869,0.4946886107184447,0.584260590534126,0.6611165890890396,0.7478643310796036,0.827674755891656,0.8614076533112494,0.8356868665630746,0.7426643818472902,0.6435581445078711,0.5447872980782549,0.46916289479294715,0.40475224190394243,0.37955351597726317,0.40704776902046014,0.4094109896998699,0.4105857819626646,0.43662456963281304,0.4109243007894863,0.37932393282911736,0.3749386632154801,0.39833321455450754,0.4314103582777511,0.4442469573981773,0.4440676684927558,0.42424120493547246,0.4093108043130904,0.3937695626104132,0.37456278600788817,0.3745046168959467,0.37450444800689553,0.3725828700777436,0.34504760070588425,0.3395949723925238,0.33571579707486787,0.3035810855778607,0.2619798058891494,0.21414322638968653,0.17959927114446028,0.1307362430935246,0.09211832564601519,0.0630832724467778,0.09670913499623435,0.13432585405618358,0.1637958089073157,0.1933779858661806,0.2422817403607027,0.27745688845009386,0.30483729292312134,0.33312092376293023,0.3396207138206506,0.3524812956995911,0.37420639078086726,0.3758413652896673,0.4048436790838146,0.4163920358501967,0.4911108025492785,0.5862031038937774,0.6567945899886931,0.742697366782151,0.7555350550836888,0.7136678299189825,0.626840529761405,0.5349151902497127,0.4627298525790007,0.38326029308839527,0.37450994158957407,0.3745046168959467,0.3745046168959467,0.3744973729199126,0.36856196811755026,0.3406773850949891,0.3475435788853982,0.38040775801058313,0.40804179835953835,0.4139752205403422,0.4357510114497627,0.405720202375937,0.3757316953052685,0.37450477051557485,0.3745046168959467,0.3745046168959467,0.37450453314548593,0.3735984568415063,0.34757005291636744,0.33960667805393285,0.3393373410183944,0.31717832688330194,0.27383471126796355,0.2350630052968583,0.1700819989535951,0.12910835074603355,0.09823501433468174,0.0952538935820062,0.09999213270230367,0.15266892835465296,0.18999914064128198,0.231171992365244,0.2538696505764326,0.2696770650254203,0.2843449556999387,0.30443537786580244,0.30687853661188313,0.3374020015323378,0.37055540418064314,0.40869659871941266,0.44787611588092613,0.5190873900615234,0.6073484072174953,0.682513811439529,0.7740907844539864,0.8466522344315432,0.9283356907597344,0.9643635549936986,0.9334865976655387,0.8544780034387696,0.7672178914145737,0.6908205436771686,0.592088341344942,0.4944836044751737,0.4233432325923401,0.36160899742473696,0.3474168625129117,0.37097021488329407,0.3435943549589018,0.34016773894235186,0.3642117344539413,0.3599306690547621,0.3397069228932299,0.34639108068755586,0.3731237804193128,0.3745044933524495,0.3745046168959467,0.3745046168959467,0.3745046168959467,0.37455509382428165,0.39197399440014014,0.40107023352813265,0.3753132268557371,0.37360949582806846,0.3475967718099078,0.3368020454071923,0.30793632474230304,0.2959874543668981,0.25216688471780646,0.21781770432287484,0.15903402945278344,0.11802112222984995,0.06204083410521477,0.026739552653440413,0.051566419801644336,0.0724974010345063,0.11980992203794649,0.16240581478626126,0.1955947179204749,0.22874792434534452,0.261342091450282,0.28206214542777985,0.3043784771383695,0.30469261393720704,0.31164360556354165,0.3555110194940925,0.3899341570080228,0.4348509266845495,0.4811820101648596,0.5689643722986943,0.6419809006672628,0.7121840674536237,0.7667236904944463,0.8357427663341372,0.8951143915607727,0.8804370940806923,0.7932801164229817,0.7230921846804748,0.6271311413621561,0.5280311546300167,0.43444462327449607,0.37011353592933016,HB
