0,1,2,3,4,5,6,7,8,9,10,11,12,13,14,15,16,17,18,19,20,21,22,23,24,25,26,27,28,29,30,31,32,33,34,35,36,37,38,39,40,41,42,43,44,45,46,47,48,49,50,51,52,53,54,55,56,57,58,59,60,61,62,63,64,65,66,67,68,69,70,71,72,73,74,75,76,77,78,79,80,81,82,83,84,85,86,87,88,89,90,91,92,93,94,95,96,97,98,99,100,101,102,103,104,105,106,107,108,109,110,111,112,113,114,115,116,117,118,119,120,121,122,123,124,125,126,127,128,129,130,131,132,133,134,135,136,137,138,139,140,141,142,143,144,145,146,147,148,149,150,151,152,153,154,155,156,157,158,159,160,161,162,163,164,165,166,167,168,169,170,171,172,173,174,175,176,177,178,179,180,181,182,183,184,185,186,187,188,189,190,191,192,193,194,195,196,197,198,199,200,201,202,203,204,205,206,207,208,209,210,211,212,213,214,215,216,217,218,219,220,221,222,223,224,225,226,227,228,229,230,231,232,233,234,235,236,237,238,239,240,241,242,243,244,245,246,247,248,249,250,251,252,253,254,Target
0.2052155459681816,0.22693778885610738,0.2557147927880654,0.2807412650336457,0.3152913443669859,0.34136637221942423,0.3467625894513673,0.3542833913823139,0.37514521882292484,0.40111082805989573,0.4070284498670482,0.3944870184954913,0.3781679021281845,0.36320108944343443,0.36290919761847074,0.37929677211827995,0.3930487230763525,0.38392936495075924,0.34675506147369395,0.303589928161235,0.2622681907405042,0.2182242633693502,0.1736562882715892,0.13190324657294983,0.08862701794207495,0.04405101208893236,0.005803379647367657,0.007419942872911367,0.0454928988856978,0.08969374378464429,0.13445045988960402,0.1792085252864294,0.22396659068325442,0.2687246560800798,0.31348272147690526,0.3582407868737303,0.40299885227055565,0.4476713934881259,0.48993685587111246,0.5326270095625247,0.577340071245366,0.622098136642191,0.6668562020390164,0.7116142502511901,0.756242368072552,0.7982188153342175,0.8412239780817498,0.8859554864106519,0.9305536149139705,0.960530431684303,0.9355249470621109,0.8926115506910793,0.847895716027644,0.8047206580262855,0.7628848329361481,0.71829342322492,0.6740834764589522,0.6327556663691131,0.5887118387687429,0.5449253341627245,0.5035949481631072,0.4617595001159748,0.42114495063368296,0.38325842997989745,0.35127460083848794,0.3285236856758206,0.30994325032047043,0.2857953249485604,0.26115711622331683,0.23593794762017628,0.22386610773953963,0.240286558517794,0.27130214186813884,0.30912886550251073,0.34509449360573574,0.37911091862436597,0.4035016158913559,0.40908128011831046,0.3982811313233784,0.3807585892945652,0.3673740284371927,0.3655274600955005,0.37942556059844756,0.39048365723238054,0.3772865714016216,0.33848899688916745,0.29691687946742484,0.2523886253239357,0.20763072464446275,0.1628726592476376,0.11811764638479066,0.07413452339225657,0.03296106528886239,0.0,0.01677910535975974,0.05928395460225516,0.10068307679754457,0.14504736121559614,0.18980476271699698,0.23456282811382245,0.2793197159017652,0.3235857018946031,0.36492715620136185,0.40890712091313774,0.4536621124854576,0.4984201778822832,0.5431782432791084,0.5879359836464186,0.632398666325133,0.673914680466959,0.7175278963799857,0.7622775276507435,0.8070355930475687,0.8517936584443947,0.8965517238412198,0.9412725716542941,0.9804033323372995,0.9719917056873381,0.9289466429479013,0.884567634373263,0.8431514411450468,0.7993587446941367,0.754673856390807,0.7122534304664753,0.6697234227321446,0.6250231396829206,0.5802650742860953,0.5356054214079895,0.49346023342760037,0.4513135644070997,0.4112236949531458,0.37417816475171184,0.34416000491459253,0.3220882152001512,0.3019236813798696,0.2790590620927188,0.2515533053561354,0.22419184322321495,0.20618822974462903,0.21689501819990642,0.24568186670389147,0.28050085852489104,0.3169935376072769,0.35260518633328675,0.38467325833575916,0.40178406689793433,0.3996697102849608,0.3844885951400039,0.3717287624980875,0.3636523048729161,0.37223912637918233,0.386847035435093,0.3931209241289245,0.3682115782843288,0.3265498069723094,0.2851759856344055,0.24140040563825405,0.19684183142158207,0.15510601322716078,0.11180683930717988,0.0671573642057246,0.025493758605637518,0.004370725007724785,0.03600131469690593,0.08058625220372567,0.12524439515644292,0.16740803289041972,0.21020743441191792,0.254927471925695,0.2996855373225201,0.34444360271934527,0.3892000073354962,0.43337183458555273,0.47469346624063313,0.51878712905971,0.5635428870909809,0.608300952487806,0.653059017884631,0.6977866703106063,0.740729324331089,0.7827628693883389,0.8274002368594416,0.8721583022562668,0.9168996099795094,0.9594209815308222,0.9888082926108167,0.9710822588775955,0.9273456833965882,0.8826441968513558,0.8401130423949735,0.7976970348994904,0.7530175698747418,0.7095540960368562,0.6679390700979154,0.6234326109272513,0.5805618481875557,0.545609770270205,0.5034698111365252,0.462046198749698,0.42145019074335255,0.38253961011575743,0.34704421813547426,0.32358612968088807,0.306304683816358,0.2836522304365965,0.2593059377691168,0.23405485430254558,0.2186869047467882,0.23239815796045593,0.2644763103049014,0.3008019068025799,0.3363720613997496,0.3702808700191488,0.3970770621782177,0.40614160263283405,0.394131746247825,0.37666764592821433,0.3627097514514427,0.3620673515310865,0.3774448690811829,0.3895522980948567,0.3740853608532343,0.33324748879196386,0.2915811004893729,0.24703622113985158,0.20272660604166048,0.16337729642284848,0.12608264552336002,0.08208690918606054,0.0386584350705414,0.0016982940746166353,0.0024963137677137537,0.042155644638780576,0.085715854189922,0.1272344670604988,0.17170317524203182,0.2164609225032692,0.26121898790009423,0.30597500282965207,0.35008686590064253,0.39140822042807344,0.4355177067903778,0.47710324349986544,0.5160427053748888,0.5604524898102845,0.6052103832372244,0.6499683346844279,0.6945248221735315,0.736230432722203,0.7795659510969838,0.8243096676088589,0.8690677330056843,0.9138257984025092,0.9585781877469347,1.0,HB
0.7297475739459296,0.7294926551990194,0.7412992244478878,0.75643425242141,0.7511991969776718,0.7477440152611351,0.7572795719107007,0.7596001892503885,0.7429202687157787,0.7238331516446269,0.7090321627460949,0.7066746285882111,0.7154034199323036,0.7244818773998026,0.7290278515680794,0.7266940423051047,0.7264984148019898,0.7406086876487078,0.7573803317884632,0.7617751437327889,0.7407123121289084,0.7079531629648265,0.6725728968087744,0.6359232815424507,0.603005389874498,0.5672953862104417,0.5303109570348046,0.49334401162604535,0.45846305272827914,0.42489938189755216,0.3880381591998774,0.35104769131022096,0.31405721283214255,0.27709060063713475,0.2422180676886102,0.20864672965247755,0.17178441565216934,0.13479394710755904,0.09780346862948058,0.06087839372790538,0.02683282768528844,0.0,0.011668000758813218,0.04751705142992896,0.08450652944194442,0.12149700792002271,0.15848748639810112,0.19547796487617947,0.23246844335425815,0.2694589218323365,0.30639059982491607,0.34055695685851084,0.37479442882911995,0.41173170907884193,0.44872218755692017,0.48571266603499863,0.5227031445130769,0.5596936229911552,0.5966841014692337,0.6336703753949855,0.6695765617429773,0.7023834176029826,0.7389572321509286,0.7759473671938173,0.8129378456718956,0.8499283241499743,0.8869188026280524,0.9238781139419717,0.9536491082406718,0.9363014078635358,0.9018077242665522,0.868356642309105,0.8352167101391247,0.8041209801833327,0.7788390874437915,0.7660102935920317,0.7608412787860088,0.7515670515116591,0.7450981482059661,0.7458081681065523,0.7383001881420515,0.7299219288051743,0.7363398839124287,0.7520404383975005,0.7619149441183055,0.749616273016808,0.7430110272558812,0.7559593995144724,0.757751419115361,0.7412135385135368,0.724745364941006,0.7122775766868046,0.7116412957064898,0.7251429881494587,0.7365068137479244,0.7324410519250527,0.7292728349831606,0.7351361508318219,0.7436914001511348,0.7629737308437735,0.7745486273009868,0.7584111156063883,0.7267269927354487,0.6916494973933064,0.657656987599101,0.6232540960368972,0.5863243083595813,0.5512008350586937,0.5194919879526583,0.49108841156247107,0.4554126636844469,0.41842479927390996,0.3814343207958317,0.3446217762168996,0.31130833703171973,0.27613587355850994,0.2391615335493264,0.202171055071248,0.1651805765931697,0.12819289166497183,0.09212908248193208,0.059516003045536725,0.033400030409335535,0.0494621397858509,0.08540013260980506,0.12238941994603203,0.1593793980027915,0.19586846606311453,0.22860615069965623,0.26466504017810477,0.3016526856706157,0.3386431641486941,0.37563364262677235,0.4126241211048508,0.44961459958292915,0.4866050780610076,0.5235932835486442,0.5596688652603504,0.592395479544441,0.6288785394142665,0.665868343785591,0.7028588222636696,0.7398493007417478,0.7768397792198263,0.8138302576979046,0.8508207361759831,0.8877983244842381,0.9199637631079486,0.9093712758333782,0.8743908098414827,0.8417621077531879,0.8100194997442467,0.7849844099881323,0.7686280064843922,0.759172364632148,0.75676431773619,0.7460918690611845,0.7366147670980682,0.7283970579184613,0.7281519033461251,0.740534700775581,0.7567978927981566,0.7549424330151361,0.745908234860424,0.7480215202708429,0.7506157959198653,0.7365304269295357,0.7177792848022686,0.7015107306522981,0.7032458164786234,0.7149106564563045,0.7267312899401346,0.7314453175666478,0.7306383206398301,0.7309685125003997,0.7392439277834355,0.7586488270725816,0.7746290216008849,0.7763114005170119,0.7477074942744931,0.7145887597392352,0.6793297104556113,0.6423532869002512,0.6053628084221728,0.5683723299440947,0.5313818514660162,0.4945186900433649,0.4609764976150794,0.4260776586922682,0.38910906421951097,0.3521185857414326,0.3151282465502242,0.2784236369959943,0.24543825409930664,0.2098388159659561,0.1728553200168476,0.13586484153876927,0.0988776692745022,0.062910356930868,0.03318599919919801,0.032779135562657075,0.06580877796559856,0.09852055578002916,0.13464012161510264,0.17162825348108618,0.20861873195916453,0.245609210437243,0.2825996889153213,0.31958711309702703,0.3555941753357701,0.38835324688652295,0.4248730165137903,0.4618629546399049,0.49885343311798336,0.5358439115960617,0.5728343900741399,0.6098248685522185,0.6468153470302966,0.6838056903239874,0.7205133555586277,0.7535216949259412,0.7890959404770128,0.8260786127548804,0.8630690912329587,0.9000595697110371,0.9370500481891156,0.9739644177684766,1.0,0.9773632848657171,0.941861854331702,0.9089228570573081,0.8742776860757887,0.8425011846451075,0.8196306964965113,0.8055811207289505,0.7932543990789602,0.7804586697856228,0.7721916315792574,0.7587457526989659,0.7407268478515454,0.7293917776844673,0.7385219941542763,0.7535846002889339,0.7564895280036852,0.7527581888131456,0.7621516574593054,0.7732697818003971,0.7670804397737696,0.7470608597921512,0.7328433717820856,0.725599918340269,0.732809546143557,0.7424671552206621,0.7440784508243174,0.7349129157841799,HB
0.32040032326984036,0.36542814366240617,0.4141321728802764,0.46515276615092527,0.5143761755496531,0.5675613006926971,0.6183727044966351,0.6693078551665695,0.7229556583659414,0.7726392741709506,0.8248699706217083,0.8788832437399156,0.9319488980961511,0.9634511865746206,0.9351516810031774,0.8849313934436852,0.8342681450424451,0.7803378935571873,0.7263084528825204,0.6722790122078536,0.6182495715331865,0.564221225790671,0.5108104194498656,0.46151009726515435,0.4085958130876338,0.3545706814800583,0.30054124080539124,0.24660636820156567,0.19589533748229637,0.14485712447439336,0.0908926312055146,0.03843639904541296,0.026812869114994586,0.07163817302883124,0.12200150125729048,0.1707900378459849,0.21895456094487187,0.26069020075910976,0.27400463187170965,0.2650145832238461,0.24486144103468888,0.23484227333218077,0.23710383410732538,0.2463626867929828,0.2611841471598596,0.2633195429597591,0.24346932657527265,0.21231593823034445,0.17417177700207354,0.13137570095279827,0.0905809859871215,0.05161041205775363,0.022332900302052372,0.03882545134746529,0.07993393700715301,0.11917708562852614,0.15566559941374536,0.1886799133107676,0.22256376774898345,0.2585817768268709,0.3018914691081843,0.34834512085632785,0.3964286751315772,0.4472006103533418,0.4964413939468101,0.5490563966650711,0.5986829011689464,0.6509782907226657,0.7036556322841924,0.753043406148381,0.8065848653229418,0.8592473947405749,0.9086507454192058,0.9616238649570062,0.9999999999999999,0.9787152022699087,0.9299412637415104,0.8762209263234276,0.8221916856291122,0.7681622640031328,0.7142806933740554,0.6639990479364631,0.6125028667724953,0.558512795575984,0.5044833549013169,0.45045391422665004,0.39642730441960217,0.34333988895461276,0.29408268720870956,0.2408028182171954,0.1867750241735221,0.13274711351061996,0.08059086737049148,0.06998835361250977,0.11658689365151298,0.1653649171627648,0.21389895663885528,0.2608245693842727,0.28570111058177117,0.2790822064151587,0.26000123017013055,0.24159680633933245,0.23896181627628665,0.23121680045095594,0.23701328888239448,0.25056075810413103,0.24665362974401217,0.22046658294096944,0.18640791869817142,0.14792976958395843,0.10620256050624877,0.06238193338434628,0.023855480701642118,0.009283542581963733,0.04003205786323727,0.08127927886167086,0.12145444712215847,0.15689636829853038,0.18848731601933844,0.220458880579241,0.26241907439011214,0.30750674108471043,0.3555076765905568,0.4043509907433235,0.45462973536599327,0.5051371833056931,0.5550564147426856,0.6068539619200414,0.6594341673570193,0.7088706916472972,0.7624520480339151,0.8154960728943786,0.8647526719058635,0.9174848350077393,0.9597535185150591,0.9483672830869948,0.896763529179499,0.842739083791262,0.7893107118713018,0.7399998128054629,0.687113598450967,0.6330886432677779,0.5790592025931102,0.5250297619184435,0.47100032124377755,0.41697332473393767,0.36381371081869707,0.3145644417336394,0.2613488563152361,0.20732143119064939,0.1532919905159814,0.09930164053381563,0.05017330196110936,0.04912947800547973,0.09716302983673997,0.1465639431843283,0.19561564815273969,0.24349901627073323,0.27539522323609933,0.2776627759452869,0.2634855397621708,0.24529892300734935,0.24215846366588634,0.2458567832590629,0.2575609555005648,0.2723615454686582,0.266480197002544,0.2364846572353695,0.20091729780069756,0.1631253146915158,0.12285860731250009,0.08263007911242659,0.04314985618585976,0.040640732390881285,0.07435999457465892,0.11257177203283186,0.15152298150789179,0.18699373627266846,0.21857582634801165,0.25102574959323165,0.2923650547273008,0.3418096520027297,0.3913268885327793,0.44135835546135216,0.4911867889829594,0.5410895208919159,0.5927503292419048,0.6442525723270042,0.6944997078132215,0.7483374675506479,0.7998336276608019,0.8501132575483165,0.9031764209693159,0.9499956503960268,0.9619591170162208,0.9217288438334689,0.8786505290602519,0.8385461450554544,0.7875464839889778,0.733537744240398,0.67950830356573,0.6254788628910638,0.5714496853631864,0.5177692353487312,0.46816882482545463,0.4158177998904856,0.36179997283793564,0.30777053216326944,0.25374114639933276,0.19992299371490507,0.1499694602488123,0.1075427696319502,0.1286470300109651,0.17750033429882028,0.22672905070067684,0.2684334719839817,0.2801560473869974,0.2695965478825014,0.25124486222530773,0.23762353538456094,0.2345231795728685,0.22498844323897227,0.23079239817932284,0.23954922624037367,0.22518862879885926,0.19197119914154526,0.15534463465546666,0.11682931725208767,0.07564607995337436,0.035302465335731226,0.0,0.006960010018152274,0.046707434356928035,0.08683796426010437,0.12063332253436787,0.14785998097829967,0.15726488204817957,0.1682529474284834,0.19254747726382726,0.22228023715204082,0.2579822900480523,0.3027531392361783,0.3500352831853454,0.3996950382212715,0.4534875433387705,0.505940459212474,0.5554732838328179,0.608748907868997,0.6582936568039902,0.7107110821390651,0.7632794232517482,0.8127321615918078,0.8661457164224199,0.916216775723839,0.9616729538718228,HB
0.1117485780904417,0.14270180482371742,0.1549945991177828,0.1374470227185638,0.10861794587546303,0.08760955778130253,0.059631163812570165,0.043940383161421126,0.05968714152053356,0.09789800478647037,0.13807794284441965,0.16789794804135516,0.21198378452411504,0.2656998549890135,0.32071587065417617,0.3759128553159685,0.4317853432443137,0.47770470178477975,0.5357733060349616,0.5977030304847479,0.6586309896030933,0.7147833812556579,0.7757674598630937,0.8362825974448176,0.8925474630803674,0.9532371094609013,1.0,0.9900791267745248,0.9347285264982088,0.8786297870777846,0.8177529679161373,0.7562665357416145,0.6998158372789847,0.6396790309743792,0.577726224378339,0.5159780548031538,0.4587537636471415,0.39962475830993194,0.3376969758311563,0.2757711754429706,0.21668224886749088,0.1594422445433208,0.10249004601593725,0.09555964850792353,0.11600568983756188,0.11432989669246174,0.08366445816835832,0.04114028648679424,0.0,0.0009977987997897841,0.0391193178926994,0.0786868333523254,0.10793557988336411,0.10503403852847715,0.1186967920756381,0.1664127621187037,0.2169813247079766,0.27188906774686505,0.32945891149104845,0.38568151937919404,0.4439837991906319,0.5006009244405796,0.5621543415336558,0.6222228488895982,0.6787216426053679,0.7401787969278666,0.7988858029788444,0.8564772028610379,0.9171645536305593,0.9628651292076404,0.949462892503024,0.9001205576549332,0.8516668112550716,0.7922754308018074,0.7426870650325026,0.6892274871604214,0.6282707975480162,0.5663099107780298,0.5048538132069342,0.44846491814760525,0.388234584996892,0.3264035513592032,0.2685905384631282,0.21011166557903826,0.1496598261576576,0.11204416926169825,0.09577077836473369,0.1213399294609685,0.1509433956602877,0.1575612088436713,0.13004956477442065,0.09710031386115614,0.0645558361947014,0.07193525527789957,0.11153377652700769,0.14573710988880428,0.17204891557740187,0.20263060271996314,0.2538031824700966,0.30954811292667483,0.3658886672839632,0.42404213541982183,0.4799870459840294,0.5360397218561737,0.5927416260799312,0.6518792257233714,0.7137191942651746,0.771903171747927,0.8299915643823221,0.8892178229052385,0.9208171735193349,0.8849392331212598,0.8236478010016011,0.761718680659514,0.7025510507082278,0.6453716637584628,0.5836187195224329,0.5216807918116595,0.4622572545056671,0.4052819397827456,0.34363960642410585,0.28482622637449406,0.2273342805320544,0.17003445017121033,0.16097536395145884,0.1803345066683748,0.1675414197076106,0.13317521777084695,0.10152329518578984,0.06460497334425463,0.023421080419700147,0.003728403266685998,0.03625900402917814,0.07839278031660646,0.10896871526830387,0.13276605230810845,0.16247608842453642,0.20730460993188538,0.2587455595499035,0.31582737630518,0.3718049102653571,0.42890244105357356,0.48412163918949247,0.5414311011008857,0.6010806532729214,0.6577477603735784,0.7193312187562648,0.7807990560580438,0.8372425448595118,0.8973820613351844,0.9566078948703676,0.9956052719204282,0.9692326930716639,0.91256149874636,0.8509591702259549,0.7938772930660092,0.7345846659538968,0.6726524037969774,0.611338552697696,0.5550561004879315,0.4945796576516224,0.43278773241334667,0.3752953678529716,0.3164743564449908,0.2546208817554243,0.19612223049849753,0.13859353779987482,0.09468406711492783,0.0990167301001057,0.10933377505769348,0.10801911978587042,0.11234964559926452,0.13635371173898303,0.1351449635262154,0.10737592326496381,0.08339726917094725,0.10668852797337003,0.13626901636968092,0.15019080791113293,0.18279200296321862,0.2333280269204987,0.2885739247739678,0.34434212903723793,0.40041717949125055,0.45563214351644765,0.5142547183559016,0.5761609836619441,0.6380154612521993,0.6959256571810697,0.753916072479051,0.8061729027132458,0.8107686100870968,0.7619527921308866,0.7036078158571248,0.6418166053650896,0.5837520861665011,0.5255286071298055,0.46365017783300244,0.4018455900886575,0.34431971635273717,0.2855383166631753,0.2244357662892078,0.17041275656128718,0.1388261993830282,0.13343043714400005,0.1266971572063933,0.10965076403313856,0.07231881154546005,0.036288863854763376,0.03962473104866682,0.07746552963976128,0.1089541459683161,0.12009758955545524,0.14144090582195568,0.18339101072664055,0.23658683851419982,0.2921176531799141,0.34784928583769137,0.40226210348962455,0.46016014596651744,0.5162858325774684,0.5770853104770854,0.6390455077346959,0.7010093213525035,0.762970295454998,0.8238475150085505,0.8799746439851788,0.9384171702459998,0.9744817895389031,0.9447921383432245,0.8890197623722522,0.82987339439225,0.7680365538749327,0.7098656281637439,0.6517507784003898,0.5899123733150076,0.530705391675818,0.4735584488126279,0.4119426815848295,0.35418773684156757,0.2956482453733347,0.23386445571263814,0.17899422356382888,0.15695449802814498,0.13132866756659434,0.09612421897736079,0.08908770796562915,0.11793566523776278,0.14797920509417972,0.1562760625551216,0.1275128524503819,0.09020178585226657,0.08748119765076856,0.06795978253340262,0.02818480347871466,HB
0.6132366773298175,0.5884388650551546,0.5857222727323959,0.6044987204975176,0.5820168501430787,0.518517112516879,0.45172409633666044,0.38256689570772495,0.31137358225502276,0.2442043348759294,0.17507491896870464,0.1061171343144427,0.06446270351513894,0.10593737106289014,0.17482009439016188,0.23553425209440282,0.28904465309685345,0.35035044830550144,0.40783841176518854,0.46500596393127114,0.5208866958302552,0.574270790061091,0.6383738621343449,0.7092954918779364,0.7807723883988387,0.8522502310582669,0.9236658594088727,0.9827549829560924,0.9566180763364445,0.8909116593140454,0.8223998936614878,0.7563184713184323,0.6914470500736067,0.6361924208684255,0.589546122508221,0.5479001759539737,0.5003963765139399,0.44425717028690626,0.3844360728048023,0.33056894865544706,0.30046480994001834,0.33070338052422044,0.38903809896764197,0.44786226217603264,0.5066323839354276,0.562520139533341,0.6057131572392984,0.6007813208282722,0.5827030052357711,0.5970668996811648,0.5979207715173709,0.5432312137251385,0.4738267759913022,0.4054191305241196,0.33760868843431713,0.2662823390428867,0.1969415796960744,0.13633554053094077,0.07929185788650694,0.023491703760376348,0.015355975959349344,0.07636894465796784,0.14772918975686422,0.21888379249645185,0.2858483987797512,0.35526486513375855,0.42672097868830206,0.4981988213477293,0.5696766640071576,0.6411544032565364,0.7123981965023574,0.7795881850412378,0.8375940665406114,0.8176406881539353,0.7508259342209898,0.6850174307269599,0.6262286169714535,0.5814077655369254,0.5389892567139452,0.48987367582447217,0.43520450684587764,0.37847787906490593,0.32304972315934954,0.28863919020275464,0.3127482067591154,0.3673492818097326,0.4254077310518052,0.4845634563843886,0.5422762346619949,0.5914096361721808,0.5974671928000825,0.5906924382044876,0.6073167173810314,0.6003471004434817,0.5389118948361753,0.472218468092396,0.40120979254467826,0.3325105746804321,0.2649558886530635,0.1937357630948212,0.1255721023276114,0.05776692463869193,0.0,0.01567613394042844,0.07891756689607732,0.14887920702065505,0.22034702522400884,0.2918248678834363,0.3633027105428638,0.4347805532022926,0.50625839586172,0.5777362385211473,0.6492140811805762,0.7206919238400038,0.792169760066602,0.8634781053540186,0.9215567879701096,0.8983139312413904,0.8307102015202605,0.7639761264728286,0.6993134210079579,0.644384956868763,0.5992626531092937,0.5547321409584667,0.5067826826929684,0.45452258610632734,0.39959897803904854,0.34485309774344575,0.3202381915786139,0.3555078008287189,0.41190620775536335,0.4746334897257909,0.5326219594062678,0.5848478155681964,0.6130562099668402,0.5972789614633942,0.603083371562255,0.6183240233045921,0.5853566406980446,0.519306416107608,0.4526439649670668,0.3818499640430655,0.314602189424364,0.2455490845749021,0.17424570231813663,0.10653069611173771,0.04330822955004465,0.04260139376282368,0.10777825623725246,0.17423579393744704,0.24453112518049702,0.3160035914254067,0.38748141235230293,0.4587915402016878,0.5263406983990171,0.5950467576600953,0.6664729680186159,0.7379508106780432,0.8094286533374706,0.8805480868104312,0.9259757028238877,0.8821778334098507,0.8137257413583856,0.7481419766585782,0.6853199796360929,0.6295233027925025,0.5860300978293076,0.5440819591735835,0.49612113122666956,0.4477956483984855,0.3926847690802373,0.3417656014518966,0.32385005562187286,0.36505016544358915,0.42168341616578997,0.47927937255100206,0.5354088918672892,0.5874766697208047,0.6124068154225695,0.5942015028375658,0.5999997662779339,0.6161653308475241,0.5888058552909807,0.5258614220397317,0.4565801861511225,0.38644765179991614,0.319930305639644,0.24908674064558467,0.17856584462796,0.11251343502076938,0.06322853165917164,0.09549094511574696,0.16089464730227632,0.23182675930670116,0.30330092231626404,0.3739206696938915,0.44035459530587806,0.5108212663427469,0.5822951897613848,0.6537730324208137,0.7252508750802396,0.7967286918344914,0.8677908137925046,0.9126781919961657,0.8673560693509805,0.7966191441965347,0.7300877054455484,0.6674269509398416,0.6167102133642628,0.5762060368554318,0.5307435005130356,0.479155090168746,0.4246395828439484,0.37021326902744034,0.3268760118629359,0.33373316679077347,0.3836500860965507,0.4405626633027233,0.4989664525088122,0.5572286115493073,0.5986420326352198,0.5920248161768993,0.586478679079445,0.6072578145537788,0.6008862137889792,0.5416929867150173,0.4723760347957857,0.4059370973846973,0.3358518851605493,0.26887950479228484,0.19951386296070728,0.1305411087832945,0.08008771759622157,0.11003207241704982,0.17915047934534933,0.245589523608149,0.3160079726968906,0.38748143408483593,0.4589592767442614,0.5304360974600089,0.6013571981353585,0.6679346460336761,0.7379600699799715,0.8094286533374722,0.880906495996898,0.9521223553843676,1.0,0.9576678040215834,0.8914410500588414,0.8214886536050379,0.7554115403626169,0.6907284585864126,0.6321115192620939,0.586995011383844,0.5488275930942497,HB
0.7234616599346753,0.7867533553778769,0.8478276937668441,0.887640379763778,0.8566584613892338,0.7914412929458727,0.7305100691921429,0.6629212359082501,0.5957191217098972,0.5347825169410063,0.4671720176498324,0.39891077842150224,0.3371803128811668,0.27165966224619553,0.20930427908558857,0.15390265196289432,0.14771519164408908,0.1529506993993457,0.13734372621163748,0.10320027917046093,0.06312264787704303,0.0883329246250919,0.1256056275191948,0.15269927105739045,0.1587300558187228,0.14041487604885727,0.12118989195246765,0.07897720880857761,0.050003423549164205,0.0808557967074437,0.09554965065512455,0.119998737508769,0.1518939098664862,0.16315536491379556,0.12773190708968807,0.08391210009552275,0.10899841917485009,0.15262797667481887,0.20459803147907785,0.26311430276691716,0.3256766463350942,0.38642491629146525,0.4450126848666809,0.4937124560216044,0.553164997781268,0.6147728836242958,0.677732106544219,0.7462453058628964,0.8148759102734662,0.8795858042721605,0.9368039200412035,0.9444001961257524,0.8916158897319089,0.8272122474836006,0.7594250753135929,0.698367395163292,0.6315202957184387,0.563693404958872,0.5026468869451657,0.4357739458772081,0.36718221866021294,0.3031096345232789,0.23989182756899896,0.17180119466003596,0.11251467337131338,0.0835653872238955,0.1079832340080118,0.1437264513934322,0.16697301210245397,0.1883162548759596,0.1935777134701162,0.15718676827995925,0.09999480952168116,0.0718026271948744,0.10327137459484326,0.12640409793605856,0.1508281320375744,0.16496309824046484,0.16085772030493062,0.19556447960810952,0.24516938881459227,0.3040349240778757,0.3674196218700121,0.42871398863829824,0.4893728254422811,0.5514246637323539,0.6147718099748336,0.6757135262018017,0.7425769477503752,0.8059816963380229,0.8694721551054174,0.931096605796029,0.9875856093844653,0.9930126121655354,0.942333116155806,0.8753262991245521,0.8066516614607764,0.7379732264390046,0.6693001171804593,0.6024322934378641,0.5413700911018728,0.47355384826393654,0.40670753172087637,0.3456359687338628,0.27794337297340377,0.21683860521350562,0.18633112959735487,0.15649715818528587,0.10313961849460118,0.06837535192194899,0.09132043756204222,0.10269635514897413,0.08842919360315715,0.05810911691296772,0.022248615561037077,0.0,0.043026125372500834,0.08850940925023809,0.12362867117834542,0.15123369993054592,0.18096347409174762,0.21760822674713176,0.26895620504442874,0.32622774452915637,0.38162350385917687,0.4344578309023832,0.49431540302896115,0.5606396777342604,0.628703052991177,0.687081794244714,0.7379387358695126,0.7936450526333338,0.8527781766121518,0.9210771786848566,0.9816826519552229,1.0,0.9514817350282727,0.8909407500239439,0.8238429237410685,0.7569615450593692,0.6959071432658965,0.6280951779556738,0.5599600234323074,0.4985047832012164,0.43233811551013424,0.36393052706253615,0.3015481634673298,0.23656903934665752,0.16836222151570324,0.12061253702029484,0.1143943797395468,0.10211552991720207,0.06853595198258966,0.06692243256190977,0.10826911729107946,0.1384577844896535,0.16292911621819495,0.17515325744931776,0.16735556069234114,0.12763378659096847,0.07342883510993992,0.0708046830774498,0.10663601299484804,0.11006502625322989,0.11375584824086626,0.12037148582483614,0.10738801868113579,0.1270997279924284,0.16842069908661284,0.21433067043920184,0.27306786972759034,0.3401005049511352,0.4008139715353036,0.46199957238705314,0.5255840656797441,0.5855236997139834,0.6450745035984391,0.7076810618646525,0.7706631665848613,0.8356167051315246,0.8946750072235479,0.9189519432536897,0.8761602936916288,0.8107502733353109,0.7497072077363689,0.6828467394236384,0.6141744963292535,0.5454960613074809,0.47681762628570823,0.4083385187084261,0.3455925673867586,0.2810170197146582,0.21259722555149163,0.1500835993223797,0.09773697658463476,0.0625442329117174,0.07639306856446004,0.11801970741958967,0.14647551143375792,0.16081042792414335,0.15118123978945652,0.11637675076906917,0.06779124251520008,0.020858987155731423,0.033870577182784745,0.07665303610272045,0.11945935830567933,0.1558637495620483,0.17511431721299653,0.1648158435775824,0.12695694135768543,0.14284692688736111,0.2014328408762398,0.26204933019455057,0.32268972035836163,0.38772560165306036,0.44865300889952353,0.5119841679553221,0.5721239051943359,0.6246315791309422,0.680508964499893,0.7410648590234481,0.8083899253804829,0.8770652155812186,0.9454731416934341,0.9981799961634477,0.9866173599103591,0.9284239783378947,0.8673341275234732,0.7993570595032686,0.7328057374737895,0.6716000051554634,0.6036019489011828,0.5349424909368601,0.4691944025536434,0.4074435698035821,0.33932249536684167,0.27620563774058926,0.21237850687274773,0.16218505231874691,0.14031106762019352,0.0981640133537689,0.05836807486323736,0.08135640669311006,0.11495122969636551,0.13325416848368632,0.13293885170722786,0.10653565800203157,0.06355450539207541,0.024507249032294176,0.014497558822659684,0.02216903327622033,0.05343800570427981,0.07395125952554604,0.08034137780291895,HB
0.3798932991314925,0.3847918695363921,0.3558293920516673,0.32495683911804973,0.32320203552166205,0.3304951893776815,0.3287102558390689,0.3403731241387449,0.3568341085869289,0.36703934466468535,0.3604459831930713,0.34577934812695466,0.3242326645448639,0.2931668218306889,0.25566894206946666,0.21447621597515254,0.17555805066452046,0.13225332969832415,0.09670371416519141,0.0787167381438274,0.10217455342391646,0.1349202637840845,0.16621092611051935,0.19886509760065407,0.22980044935056276,0.25319173747309964,0.2713313378420328,0.2882222391322158,0.3085166554255334,0.3243994285342402,0.3453052560505685,0.38958443499831774,0.4388303112608234,0.48910694386582443,0.5259324681920197,0.5762874672109126,0.6342037501449609,0.690334923236849,0.7397771107282771,0.7970092954020094,0.855072280286205,0.913134518883737,0.9696611056460231,1.0000000000000002,0.9742609277215546,0.922432755884617,0.8715665720542016,0.8137578825183247,0.7556944045742757,0.6976309266302281,0.6395674486861791,0.5815199339388377,0.5267483468221716,0.4764217221302227,0.41870291142978,0.36063943348573146,0.3025759555416836,0.24451247759763484,0.18644899965358697,0.12838570268409977,0.07092622436393103,0.021835076805225118,0.0,0.044667769442331196,0.09617034932535473,0.15406707843898015,0.21136614123505648,0.26088818041518036,0.31486336643548896,0.35938585123934574,0.3867254202442165,0.39083914285255106,0.39844393051725313,0.4057964939670977,0.38672715398305413,0.3527213296194909,0.3275260753169593,0.3393313429728033,0.35173841882100176,0.369837695574887,0.3800816629089592,0.38919055665335733,0.39044673313802347,0.378900484059818,0.3508416176701272,0.31602566043525826,0.2776066652108271,0.24231190295224359,0.20703985697004423,0.16181892296565525,0.12027354070167928,0.08075209298501096,0.0645760161875577,0.0872755361425337,0.11703184976066927,0.15222564314515918,0.18918200165912613,0.2213268863646094,0.2441612447341024,0.2657168665212184,0.2885581092409648,0.3035776254756195,0.31742504915436776,0.3355135960385549,0.3803887695274861,0.4378935858323614,0.4928138114263996,0.543054637119819,0.6003986987743144,0.650928997268853,0.7054686529771621,0.7631154179012836,0.8131517935570194,0.86808429936439,0.914198170272585,0.9109670231363551,0.8619041320581824,0.8050232031606848,0.7556900618751314,0.6991917698082981,0.6411306961692886,0.5830672182252401,0.5250037402811916,0.4670177510744489,0.4143525080455792,0.36210359809548365,0.30413920302479247,0.2460757250807437,0.1880122471366963,0.1299512489829726,0.074997526710886,0.06720441170464597,0.11506279009639697,0.1728960607943435,0.22437728343821806,0.27783194129211775,0.333300822761329,0.35916079703526327,0.3676414411488944,0.37563407084731937,0.39547126530545085,0.39149859970058953,0.3598805892149344,0.33160574898509165,0.3332435243577112,0.33377374919972125,0.33377673680947906,0.3354398210800118,0.34414107875027367,0.3451176679752421,0.3400467860600096,0.3188424933359162,0.28856752866869106,0.245520695943092,0.20559469359195526,0.16111902362984143,0.11700706011918216,0.07350111150474281,0.03295274905290069,0.009533471819906492,0.030676275173430412,0.06639266323772564,0.10031608069210085,0.13586844340152804,0.16570451774513506,0.19729485413158598,0.2302824805323045,0.25281528027233935,0.26837057903597494,0.2829044499685307,0.30366696661551584,0.3262166669085991,0.3699573405405683,0.4216822991333402,0.47081705246965266,0.52690868499001,0.5766909020523368,0.6322069805165447,0.6899896906628975,0.7407577792776416,0.7950268483428713,0.8530357311855756,0.9070973917494098,0.9489972186447375,0.9377024789439219,0.8873426984234756,0.8293903573494144,0.7714472824323539,0.7193341989022819,0.66651669180337,0.6085258200930153,0.5504623421489667,0.4923988642049195,0.4343355970430076,0.37696520859425764,0.3274648631263619,0.27152948682111155,0.21347084900447166,0.1554073710604229,0.09738392252279193,0.04476670811750516,0.0378069157262888,0.09062248989753385,0.14460625311945585,0.19559109674471498,0.252931408027808,0.3025628997332501,0.3486810120774726,0.37049270611226204,0.3790105089468323,0.38710143967628863,0.40751752089505167,0.39301948640885653,0.3594999981883702,0.3357205439341904,0.3415983755179939,0.33587568597415074,0.33873772207401553,0.351752123201198,0.3700527890600809,0.3789116327222317,0.3743139974747871,0.35452762020831097,0.33265619613486663,0.3023587221556505,0.2667886705501341,0.22529158908547475,0.18163171164534275,0.1333858378125421,0.08605501280654115,0.05211616596273472,0.049680741467147405,0.07434409833786249,0.10726599010773619,0.1452363694436194,0.18047066690820035,0.21032273930232215,0.23608942492073037,0.25733141695396533,0.2769952142976584,0.28904531487062113,0.30327584827398124,0.3324144647056062,0.3772995724283652,0.4295303701503481,0.480537726168383,0.5357527431481348,0.58559976835647,0.643125140551785,0.6980095932367953,0.7482785475362925,0.8059417196217147,0.8636604558032224,0.9139806787719087,0.9639654066024959,HB
0.6083130862541866,0.613724709880267,0.6257405279461594,0.6204115846802296,0.615656781270328,0.6053499992080764,0.5966378975960556,0.5898038317916623,0.5991032462409195,0.6151888381163284,0.6395606905667872,0.6530520673458533,0.6511498518303134,0.6234517422678767,0.5794511030531301,0.5343005206796563,0.48928459842750616,0.447824683968587,0.4051275800126485,0.3600081185672802,0.31485516013577897,0.2699295565747629,0.228923610203578,0.18569902870471655,0.14056275802340268,0.0954217132449055,0.05199878872423186,0.012718563595020715,0.0,0.03277850256466752,0.07724551859321982,0.12239748989481314,0.16755044832631438,0.21258322061383128,0.25412628241704316,0.29672545479542933,0.34184285043869056,0.3869958088701918,0.4321487673016934,0.47730172573319474,0.522454684164696,0.5676069313275167,0.6121801697645926,0.6526505642058174,0.6967505007360424,0.7419000447085735,0.7870530031400749,0.8322059615715764,0.8773490456590636,0.918879301702032,0.91689238251025,0.8779118426474128,0.835267932912136,0.7901519694881349,0.7457001132387449,0.7066292661697975,0.6723648191068279,0.6482210424369044,0.6359357970716313,0.6231957751941941,0.6099224893946167,0.6094601785617197,0.6191363533764804,0.6133716857703624,0.6161761815837137,0.6338404777455648,0.6304612437299786,0.622312214337033,0.617623362901073,0.6256892086298349,0.6475978064747299,0.6694890667935072,0.672775235133765,0.6550807568602399,0.6132619024469708,0.5726047045503087,0.5289599472608304,0.4865626837947874,0.4448345524776641,0.39978336460600616,0.35479886931051297,0.3135327382016806,0.27062026720843035,0.22549096249363054,0.18034264493303953,0.1368415164968959,0.10197092404513503,0.06320364910054027,0.020656879438712417,0.007133144942138514,0.03826288639127262,0.0826234040627235,0.12777520228758832,0.17291181486392826,0.21615221364440274,0.25714668388314155,0.30206760439996405,0.3472205628314652,0.3923735212629672,0.43752647969446845,0.48267363916857053,0.5265395734527774,0.5671011798267961,0.6096310099823266,0.6455405593911663,0.6894881447013053,0.7346388938740898,0.7797859664777367,0.8236435118161021,0.8642172358710267,0.9089260415314786,0.9502144020313463,0.943119576633423,0.8994391514526245,0.8543166241858546,0.811545457228581,0.7701932488061594,0.7279997991840288,0.6921530546893544,0.6633169686037774,0.6459357507032566,0.6382047106888977,0.6258469161456086,0.6201192913661533,0.6293941210109268,0.6236531636720613,0.6140360430915814,0.6134064394810144,0.6022956836118948,0.5921751823376321,0.5888654985222711,0.5994259253183537,0.6196897229330676,0.6399783860131079,0.6477704109549947,0.6350576546693643,0.5939729028180825,0.5506302225412352,0.5097312672829062,0.4648886712389684,0.4225908606788973,0.3807584400561117,0.33569689341837594,0.2905439349868739,0.2455908666480381,0.2045073504065178,0.16138558123814128,0.1162515328744983,0.07112790409361025,0.029644842610122235,0.019013677979825727,0.05465626054328454,0.09500551393824241,0.13947351105527916,0.184625304725494,0.229778263156996,0.2749292038707768,0.31923216653569575,0.35748025010484885,0.3926521155734479,0.4365870133314764,0.4817377189051153,0.5268906773366172,0.5720436357681178,0.617075832568631,0.6586135454497326,0.7012184509807489,0.7463360378804933,0.7914889963119953,0.8366419547434973,0.8817928357338936,0.9259515313601279,0.9507736840345613,0.9201227372789074,0.8751037502899774,0.8299516514581644,0.7853985767197404,0.7450127624565679,0.7045308124946112,0.6697819895301256,0.6471422132119715,0.6361818400605614,0.627921635948057,0.623535904497361,0.6314011534175035,0.6374096819319199,0.6251001701763343,0.620510058929213,0.6081755794207588,0.6011743805161344,0.5987736701261698,0.6099571760709139,0.6324279829693926,0.6516859794740362,0.6591899277748017,0.6438485381538204,0.602136655703594,0.5571667904176777,0.5158847319102075,0.47298996231728496,0.42786149611687296,0.3829592782982789,0.34201071258932425,0.2987070446823986,0.2535690645259524,0.20841610609445038,0.16327764114072574,0.12003007984294667,0.07904086296378493,0.03451893881010937,0.005098986580931719,0.023667857237770096,0.06718552637114766,0.11206741498747186,0.15292972520677628,0.1963346704236808,0.24147540716339977,0.2866283655949017,0.33178132402640226,0.3769342824579043,0.42203041670311237,0.46421359462622114,0.5061519939989746,0.5512266845702799,0.5963796430017818,0.6415326014332825,0.6866855598647843,0.7318384325412204,0.7766819362144233,0.8174735311951742,0.860988450950813,0.906130920408662,0.951283070869984,0.9947762644872806,1.0,0.9595070528844882,0.9189253219596893,0.8742111970033337,0.8290586368071404,0.7839388504578275,0.7413050106305268,0.7028819518882996,0.670401178011742,0.6477643047187236,0.6388535537040667,0.6289831517975308,0.6184188423337451,0.6251111992721039,0.636029458597793,0.630110884417693,0.6267906675790857,0.6195842897731636,0.6079627058008839,0.5991034209203371,0.6020814254425847,HB
0.14894127952192737,0.17993936937138288,0.16556650110422866,0.10211762883089426,0.056183727308628084,0.08201974111217702,0.13239284021444653,0.14855696735959967,0.1854421489518696,0.2396257348675399,0.302391315286227,0.36548248030802144,0.4328725229940742,0.4960605316740063,0.559877387048634,0.6274601087184273,0.6951205591954912,0.762568785076795,0.8248559569176803,0.8662703816897055,0.8254160504015764,0.7617995639030202,0.6995801335615206,0.6387873637754957,0.578681120908386,0.5186209239040545,0.4615703930209354,0.41844267791644496,0.3830769187815457,0.3430440178398537,0.2905227360894902,0.23871082856836767,0.1845151057242942,0.12804771094537304,0.07738884434344029,0.03643654390700335,0.04251593323907543,0.08845882732142019,0.1410402019866559,0.19484512202790616,0.248889311894529,0.30122186558490904,0.3530518289629505,0.38673313940445664,0.3886721385857159,0.3838846462641814,0.39582287935063465,0.4068112411314404,0.41031804817338013,0.3744467719683875,0.313426083076606,0.2513334609397373,0.18643530306577616,0.11880440811215598,0.052444178959368815,0.018268533330503045,0.060349588608338944,0.12186863102458911,0.18651712115315666,0.24878017125927743,0.3135815371646946,0.3793074566125503,0.44092452832469053,0.5080146164134824,0.5739343015246772,0.6292229993239298,0.6935834341459128,0.755540461083205,0.8207667019825211,0.8884075804382234,0.9558342944190201,1.0,0.9582338353376281,0.8963789951876935,0.8307918515980051,0.7693137401124457,0.7067293080221546,0.6560134830203901,0.5930849118820192,0.5325859523966161,0.47723917789966497,0.431387662418647,0.3928125574400003,0.3539972982658173,0.3048442389928361,0.2517573667231554,0.19853204428704463,0.14315590658338717,0.08913668018399434,0.037330234107551874,0.0,0.016898556023138056,0.06476575884731783,0.118748117063608,0.17322377117731302,0.22862559766488788,0.28220749728796535,0.3374097676984553,0.3756776339826884,0.3736449448297332,0.3669858726372537,0.3784073845384319,0.3885452510133718,0.39075715067388606,0.3558681513619315,0.2916218425084478,0.2282497250727813,0.16464455570230863,0.0981623316614566,0.03994613461067753,0.0213710034657677,0.07221467156565775,0.13332463019441532,0.19928321626672418,0.260769015050637,0.32677031262327927,0.39340033530987517,0.4547274907002088,0.5212254563557999,0.5888829395710218,0.6565434164812032,0.724174064997759,0.7890035992240512,0.8512807802008404,0.9186344946470426,0.9774478563669189,0.9578852302480154,0.896513267443146,0.8323713036079088,0.7686345928249745,0.7054220977592509,0.6379578274890916,0.5740225248181094,0.5140102477093529,0.4604648005562142,0.4144079503461091,0.3794797607069602,0.3388587612194156,0.2923438919283081,0.2430540226316078,0.18805303441033794,0.13275743234513726,0.08204056817936989,0.03563129993232694,0.02771622948989294,0.06723712286730965,0.11845132275216108,0.17250274263255783,0.22759972913412163,0.28631979807411323,0.33484231493868943,0.3672040539708479,0.3663710868614878,0.3685797163630986,0.38606278679478145,0.39749862341553355,0.37852083868588693,0.3198584113815022,0.258438777510108,0.19407954822038986,0.1327379663529482,0.0735979887843139,0.06865998360915326,0.12278260714130829,0.18872120244538437,0.2500408782638954,0.31503384787210864,0.3742237537484647,0.42858454481282693,0.4932253854687936,0.5495170753005154,0.6066520548014103,0.671384598167599,0.7390129799878313,0.8063148861025362,0.8470600811616167,0.8054816464001333,0.7392103277315416,0.6720810316944208,0.6104844225077948,0.5487651416698964,0.49194260620592134,0.4382732483555096,0.3962974095971996,0.36448007300265983,0.32205799694990245,0.27503044234232776,0.22359164976157864,0.1696520539317088,0.11570655447448219,0.06403861931237254,0.025601385710033453,0.04220156565498856,0.0865006557470207,0.13595324782854346,0.18961827941417697,0.2459123585206271,0.2968794086751214,0.335581661676952,0.34339518281107617,0.3537335041169374,0.3731388668046256,0.38605758461096706,0.38062310502010477,0.3350047653334025,0.268481495037346,0.20570902341132857,0.14164207756054292,0.08537230427826792,0.09005484257034824,0.14809767223904147,0.21059603317093778,0.2745903800820604,0.33660188640399635,0.40170003476142746,0.46842547049867567,0.529756337659504,0.5961410127180096,0.6637955280147374,0.7289610991424638,0.7421780288216389,0.6864264548426489,0.6251112750212466,0.5607683950603377,0.5019189408774516,0.4515364214096995,0.41001544345934504,0.3747656432197304,0.3341434716379017,0.28463247440047357,0.23332953168485937,0.18017224114656138,0.12447175773598018,0.07342145755169738,0.04022060674500727,0.05980285829627996,0.10818322077582798,0.15989817333281597,0.21206245713373684,0.2677735462426645,0.31903048625048425,0.35796059887001497,0.37075738872061836,0.3765947352280534,0.3832646586455657,0.39295206138823846,0.3811544021234343,0.33284305156628524,0.27114082043315446,0.20654937064811807,0.13898456890592126,0.0792692728567459,0.07938453825999825,0.13457127800401358,0.19618331045468596,HB
0.5742349922265275,0.573354573254528,0.5619653152522295,0.5461863570096295,0.5321896543979028,0.5143116253642663,0.5092687478296631,0.5389046850658064,0.5638120417548016,0.5672932947051379,0.5793661202955405,0.5532692827133971,0.49446043607018675,0.43062187603877145,0.36860293395406774,0.3138770925096659,0.2510255795847143,0.18724566696696066,0.12921717819303358,0.07337591418197076,0.05275325916374052,0.0935424966752616,0.15388080130868875,0.21678421328855535,0.27153563870818176,0.3334614938922058,0.3973343158012488,0.46072145142834975,0.5161953066032636,0.5769380243681559,0.6408036310166882,0.7046806489415416,0.7685576668663949,0.8323947602455322,0.8905029170124084,0.8978153609749735,0.842436214754172,0.7890393257555286,0.7348572583893889,0.6748063203258239,0.6293787359402843,0.6011047101992542,0.5752924610059584,0.5576508477629862,0.5266184618225886,0.48987596967694436,0.4531634730463947,0.41107154287902503,0.36779987436527795,0.3238488774814876,0.2787929026969014,0.2663676424184003,0.2968853712661721,0.33800574995027355,0.382148782506077,0.4298667645652796,0.47772617438135345,0.5218763595159301,0.5584984316590509,0.5730333183500003,0.56023064987949,0.5405440683279517,0.5380541627763107,0.5308367850952995,0.5118922773537544,0.49357482828015153,0.5136478639987809,0.5520368755155134,0.5671539046858844,0.5699968328337037,0.5591508724979548,0.5058436755895985,0.4427520698736209,0.3877032598023098,0.3263670227658877,0.2625615338981775,0.20399927690432018,0.14663495158883233,0.08296098516026351,0.02639159638714972,0.006066614829426165,0.04355482678105105,0.0983660856759978,0.16179394686537218,0.22407945165882293,0.27867970183613777,0.3413902563990485,0.40526597955542165,0.469142997480275,0.5330199884556108,0.5966708461248156,0.6532643418147623,0.7126513204128768,0.7764891812872188,0.8403661992120721,0.9042432019778222,0.9676938126782821,1.0,0.9571919632589427,0.896439288803061,0.8336640945507114,0.7790415682794607,0.7169550398225519,0.6599904092909665,0.6162948326893898,0.578101075549097,0.55807353987124,0.537769160584,0.5174114943279864,0.4850325784498475,0.4450385378404029,0.40829086146467697,0.36423030604800144,0.32186165190761984,0.299337180264202,0.31855933194376074,0.3582254557574216,0.401829244259579,0.44461866055741206,0.49618580136297163,0.5382639609955706,0.5665430564137093,0.5740851192860721,0.5701549896100373,0.5624694044491845,0.5613477528261099,0.5474036203495638,0.5301539062129721,0.5486698465706015,0.582829665888674,0.5979922641929558,0.5922618470453669,0.5564103357750003,0.4945110201734664,0.4374547481582225,0.37860779802169886,0.31879779133015806,0.262646132053709,0.19985663151607969,0.14884838494215447,0.13990540753104908,0.18504560450419305,0.24664174634699298,0.3104915617662132,0.37067820322581846,0.42657980934078976,0.4901049109200597,0.5539805924791021,0.6166735475352993,0.6713396930375111,0.7335761068775706,0.7974510408279682,0.8613113664343599,0.9213455640541532,0.9378057692983619,0.8828408056248129,0.8214190546506206,0.7664547215171025,0.7052183923534976,0.6550546727943583,0.6165297845983733,0.5943525458917212,0.5840606076524335,0.5669397127154241,0.5438749874385618,0.5068527191433736,0.4678472703348169,0.4276925696783609,0.3969233233459668,0.4010775984849815,0.43477665390313747,0.47521386124579945,0.5186758090598285,0.5625823588882217,0.5924011104696203,0.6029358826349784,0.5990467717335939,0.5966400249044652,0.5874006575240596,0.5806891152646028,0.5575846341577504,0.5475181265754896,0.5723550807549429,0.5966046772957809,0.6005960911658752,0.5977680824109108,0.5512176037258563,0.4884243059180611,0.43228316427938807,0.372383497833233,0.31017251851783034,0.25550637301561996,0.1928239365576987,0.1320041511008212,0.08983123994540776,0.10666414751987308,0.1590294269226462,0.22044109569238612,0.2843066715676268,0.3464086152672019,0.4010599685389138,0.46390349852774393,0.5277795505199416,0.5916169853254554,0.6510991169416283,0.7076009286547436,0.7712487164020301,0.8351257343268856,0.8989676298546465,0.9513809550816981,0.9281108464346444,0.8692247712348253,0.8079940595365738,0.7529405584498297,0.693567477188247,0.6457397981882527,0.6095882425568604,0.5840105152889694,0.5670731389146606,0.5453142627631926,0.5152950930839402,0.47739044435683464,0.4349146131096224,0.3923254905509541,0.34891975580510404,0.31342540705935806,0.3034517324878534,0.33441932467071545,0.37447054728178397,0.42153672301691025,0.4686251078192276,0.5158307108796736,0.5499862095708901,0.5672348254307802,0.5638410475975391,0.5528547011248099,0.5406176950541313,0.5328290205597868,0.5318685750690775,0.5090768795217484,0.4934895028108264,0.5228631671687562,0.5533117326440546,0.5644452367296322,0.5633599605955102,0.5219025404855948,0.4652289977850339,0.41057915538951084,0.3477639640916981,0.2855906744116494,0.23090747292595548,0.16816952634248383,0.10499897081206888,0.05012739057633797,0.0,HB
0.015266161804347034,0.037948235412944786,0.0779003920173067,0.11419368674983565,0.14778110998338012,0.17159548931571655,0.19216111942544312,0.2007266012597939,0.22859044121948768,0.27187254509970127,0.3206650631861132,0.3715562497356024,0.4261440387155857,0.4835645163934428,0.5408240345653397,0.5929021004816004,0.645571628131067,0.6952497512726463,0.7449357489286097,0.7962671910863195,0.8479021517424794,0.8985764914960006,0.9438837439061141,0.9351816923013363,0.8868630841814364,0.8330953451692018,0.7806831654838322,0.7281841081256648,0.6775908723313742,0.6229396544360337,0.5721118577823754,0.5153013544465104,0.45785721859622996,0.4004336246907114,0.3456918437204197,0.2942226933783416,0.24122640522678052,0.22394836570432908,0.2340497743764951,0.25649536505112747,0.25108533951964285,0.22330812228721597,0.21333451784308144,0.1989800476284873,0.17278278854778173,0.13430251670524695,0.0947177186958017,0.05614571194708784,0.02592406334806796,0.026977764552081007,0.06319976639965175,0.10197562468538801,0.13326785049215206,0.15916694493345496,0.17639691627930154,0.19189988978898986,0.22565583947057832,0.2716126820231921,0.32210276998756404,0.37441498251251626,0.42695214306885143,0.4798321978920306,0.5307648803864078,0.5861831239441373,0.6416013433343031,0.6862763430669587,0.7293086644368649,0.7781964279029947,0.8289010825002068,0.8828017469262335,0.9237395712439223,0.9148012480957526,0.8665040448777654,0.8111121609252967,0.7605875658677328,0.709788864728804,0.6569197716907917,0.6059602898829299,0.5500408211638284,0.4994049459601264,0.44314975578043203,0.38570751860569996,0.3282693414721518,0.2725454118918291,0.2263257871229658,0.2141023017576349,0.2275648899884264,0.24803683714514957,0.23736633542115992,0.2136790393365231,0.21139760932200002,0.1931280789877332,0.16343043063761686,0.13059461751622048,0.08919595015654003,0.04777341957515113,0.018133288666483782,0.016566562398039553,0.050347815777366245,0.08748280867340585,0.11816801430270418,0.145496251619746,0.16422030782452546,0.1832586172230033,0.21532771547884821,0.26118623523568174,0.31153567954502015,0.362547815782879,0.417534190061396,0.4684557598315533,0.5213509781683516,0.5738932078817811,0.6262369495056594,0.6798641479283689,0.7364993445600629,0.787125908960923,0.8386138638915832,0.8916142630547479,0.9437658334913346,0.9652129501517974,0.9282394388539115,0.8754544778248747,0.8209900070284903,0.7706990968705516,0.7203722505351868,0.6681163775972863,0.6151776177113493,0.5583363932870262,0.5073619827373141,0.4519245574641808,0.39507642391714226,0.34417729094787686,0.2890751126435631,0.23927779573113162,0.21296226024721454,0.2244926931015392,0.24554760546262422,0.23928641565841757,0.218399637856298,0.225677023920146,0.21604789190765938,0.18981877444148432,0.15651252063738674,0.11852363732737192,0.07454402317139097,0.03545513640906606,0.009631189778317895,0.027505871523603176,0.0650331515212661,0.10521855074352149,0.13794175289398014,0.1649190550898223,0.18200133399654272,0.2013623503439026,0.2372509201200268,0.2837376270583365,0.33460009730853923,0.38507616918972865,0.43978374675421694,0.49049321330752016,0.5468158191212511,0.598221589252762,0.6524548573424322,0.7031429028624778,0.75359130667752,0.8074372416719475,0.8639714302820085,0.9146534228399812,0.968913972577822,1.0,0.9743798471241365,0.9250441450734885,0.870603052170789,0.8196564776050921,0.768136466800152,0.714121601459325,0.6619720422691355,0.6080941316885362,0.5544832197638005,0.5036443915633582,0.4615041710353065,0.42239142755333536,0.3741725873272177,0.31744135253488115,0.26461741936392036,0.23082170617283815,0.2321752177950842,0.255854474828517,0.2621186053423781,0.2345245395178308,0.2251930670654314,0.2062505866307347,0.176892302381503,0.14179868096312553,0.10471919186516199,0.06342703166566377,0.021320871467015,0.0,0.022880564219271537,0.06061447996458469,0.09993784277852269,0.13248080987663458,0.15688332194941856,0.17271940474469738,0.19338002589388292,0.23142405248340525,0.2779859893373662,0.3273430959783059,0.3814772067455321,0.43241008447704643,0.4878817465712555,0.5422284944761937,0.5932549401925478,0.6436317697787282,0.6950820813270593,0.7456474704715739,0.7969533104518693,0.8540270715403602,0.9085713395304631,0.9465485210990257,0.9297517898355219,0.8771286704078225,0.8236125016327187,0.7717209901467075,0.7210081915148012,0.6671369971220897,0.616270471774544,0.5610583296948313,0.5102777632138378,0.4535260957380225,0.39784463252460367,0.3470020585504683,0.29037281950022553,0.23884216754076948,0.2081206383720795,0.21210849531056364,0.2354482539782905,0.25435256320953714,0.23164008185563167,0.2102600621001942,0.19996074084365256,0.17645568890196217,0.15734943015153702,0.15318417546036933,0.14068134237554486,0.13081103686819207,0.10228783664805396,0.06399145467323764,0.024913790845104478,0.0012376523574422205,0.025465857205120068,0.06593078901321814,0.10686204970445945,0.13792370121830722,0.14736498442048673,HB
0.9205045721404873,0.9151485022876743,0.8853782553079425,0.8509131617584386,0.8163772478598371,0.7822899936025555,0.7587123816432128,0.7548668663087602,0.7621613015518657,0.7944855392337516,0.820543556712909,0.8353586893656398,0.8502757061470779,0.855618644827249,0.8401694380517936,0.8234458071199023,0.7795255913989777,0.729868550370662,0.6833627618380443,0.6373148513561241,0.6007505431653143,0.5512647514704805,0.5033186832407271,0.45516853449166006,0.4034451737670952,0.3516463053258202,0.2998745842972429,0.2507967176484146,0.20370242160345786,0.15210384541929023,0.10082658498702168,0.06834909669236156,0.09015760040741982,0.13968831842572638,0.182429020086326,0.22154916487234322,0.27247835724254155,0.32427633544259704,0.3760747702594762,0.4273834971211853,0.4736573982881015,0.5238262501999543,0.5756178900171508,0.6274167584584259,0.6792156268997008,0.7310041387080933,0.7809701672708843,0.8273573931904318,0.8787585991370032,0.9305388210568332,0.9762190047546472,0.9722203877705681,0.9637996064532272,0.9732540393251156,0.9908077788671229,0.9917718660981173,0.9601366796013823,0.9209423560557098,0.8803024144097572,0.8414349488567104,0.803729918534355,0.7728670745637517,0.7756816752648475,0.805124439790411,0.8343614365643689,0.8537533863861441,0.8682301293662297,0.8570443304828924,0.8465525945028293,0.8512914728660171,0.8398586554086519,0.818860231453355,0.7720537137026483,0.725804343798179,0.6763194738508255,0.6304614407200005,0.5884624228367771,0.5491316779079632,0.4990531809177541,0.4475773031402269,0.4009393480848329,0.35130158938730494,0.2995173166337609,0.24771844819248567,0.1960470730330569,0.14848912968129313,0.10203706348974906,0.08535388853895853,0.12098705188944703,0.17098846820984726,0.22277930897828313,0.2743441852682912,0.3212456689314037,0.37054569114965985,0.42232204992558997,0.4741209183668651,0.5259197619883808,0.5775406768267649,0.6247603009199209,0.6736943996012,0.7254624729414189,0.777261341382694,0.8290519294628477,0.879067571429036,0.9113901414348179,0.8937685763297428,0.8853329093740233,0.8941423985146103,0.8899328926844715,0.8817126828103204,0.8536097114488622,0.8122222724400902,0.7711419447239346,0.7339134339985854,0.6979321224423628,0.6623199984364819,0.640239194930068,0.6528460299581617,0.6816671486249987,0.715355096881991,0.7401833585877574,0.7556291883035376,0.7726953104214159,0.7812160386992432,0.768648707451495,0.7618034748274539,0.7586469581791849,0.7161158809932636,0.6695059162765854,0.6203721336856584,0.574025485406983,0.5240213113891768,0.4731980349101925,0.4271590592039002,0.37628339809781186,0.3244865077715422,0.27296365693447433,0.22620289577172725,0.1767251020213736,0.12494372583254498,0.07319919745602588,0.02541159611922733,0.0,0.02987956513600948,0.07614703483108043,0.12541701784254655,0.17719275825216296,0.2289916266934381,0.280790495134713,0.33256121487355217,0.38170844310547947,0.42873281889035053,0.48033322323726413,0.5321320497092669,0.5839309181505418,0.6357129818522728,0.6852104457787097,0.7319558561780374,0.7834737035628571,0.8352717583297843,0.8857180591107158,0.9027732797446976,0.8879880963288372,0.8932986521008758,0.9105185841676694,0.9182161863646782,0.9046278408218521,0.869784258559159,0.8318354722444373,0.7949276307158307,0.7620048142985522,0.7473448140571134,0.7641640559962216,0.7870751333171392,0.7955136387337843,0.8083147392735789,0.8322944765448813,0.8272558957001642,0.8131516447137365,0.8047775238339078,0.7952985357899768,0.792093546550514,0.7641676627139381,0.7192319748635251,0.6729408299110503,0.6267903045562092,0.5756682159857659,0.5284661972190926,0.47951878989127417,0.4277540285975888,0.3759579875316472,0.3253244169797964,0.2792411208766623,0.2282101574178672,0.17641324544770698,0.12529868077576567,0.08035241270960292,0.06003633521701374,0.09363443480350997,0.1445720012988736,0.1963695271476651,0.2478079810374022,0.29433256539047725,0.34412524967641056,0.3959124298628315,0.4477112983041065,0.4995101667453815,0.5513090351866566,0.6031079036279315,0.6549067720692067,0.7067056405104818,0.7585045089517567,0.8103033773930318,0.8620684824431667,0.9108493254458586,0.941076889199593,0.9218416405600688,0.9101725999295708,0.9154645504968185,0.9340656463854756,0.972288184339719,0.9999999999999999,0.9801078497107013,0.9461980808829377,0.9091263160364301,0.8705504543798607,0.832060116525091,0.7963614433555607,0.7749031379431527,0.7886599997684883,0.8105150128236628,0.8261098858848098,0.8326036004817409,0.8285269413867368,0.8154936706100372,0.8188072067678448,0.8250110757124552,0.8251740404636426,0.8230982774346415,0.821219159756949,0.7844911256741552,0.7373279546955834,0.6898297017513196,0.638160659556445,0.5863678194306993,0.5360640210019589,0.4898738761562532,0.43861736120407013,0.38681911750031295,0.3350251622861733,0.28459868520571663,0.23846220939493634,0.18727571827607636,0.13580969846622848,0.09762772749712945,HB
0.26584761134792645,0.24599631987973147,0.21513487259132535,0.18006377095448944,0.14236424412012294,0.10450626561976983,0.0659605334113782,0.0335438624090012,0.03316768834436856,0.06296439830847467,0.09662353289832137,0.12759411390421416,0.15489211590401597,0.1858790430148377,0.22903306552707758,0.2747074937936187,0.3216103208994774,0.3686200292227695,0.41664852966142263,0.4658144998126392,0.5153782676483316,0.5635763883144558,0.6125627434285632,0.6586916930591227,0.6996702109015309,0.7412946485926424,0.786221396321978,0.833382896877952,0.8812153361736377,0.9197030365589518,0.9230314665030479,0.8877933289577711,0.8460398629760217,0.8005223672306248,0.7531624052755221,0.7063177584585136,0.6593172177574667,0.609349328711744,0.5572264458619574,0.5075907203753236,0.4625896827387419,0.41772121885070557,0.3716926592432015,0.33224489805037205,0.3007291937867447,0.2778881168913845,0.2552136250725372,0.22797098978010477,0.1925460637132661,0.1501877472211448,0.10749409274502852,0.06744737322550642,0.031324029162672296,0.0,0.004099268191290362,0.03305335038696744,0.060917304565721864,0.08865861809548847,0.12048959371736567,0.15503485833481012,0.1943417830130746,0.23854278688093355,0.2853260214155675,0.3321651342228997,0.3796781368952875,0.42853335136461523,0.47573444794935926,0.5267280617563925,0.574847653996126,0.6246155839705567,0.6767392036873616,0.7266399856950141,0.7736450563914168,0.8192429869257911,0.863497439305658,0.9046988173886688,0.9491157507437076,0.989147747837622,0.9999999999999998,0.9629167614840748,0.9195457196647177,0.8753508114853437,0.8268388964297004,0.7791845870507506,0.7289265442289634,0.6815043502645002,0.633148720422559,0.5848962995157028,0.5378712961545307,0.49032509133373625,0.44314754611875573,0.39820764367538386,0.355399880802866,0.31482334929954825,0.28630147759513425,0.2711437968736021,0.24396489178779968,0.20993465189673055,0.17185111294865596,0.13144716383657173,0.09238837096590213,0.05551667062177479,0.028345353364358616,0.039461320660721166,0.06662286497535452,0.09523349467752051,0.11442275828117343,0.14284092184705433,0.18486662762512984,0.2342053088890068,0.2810822706655385,0.32758163681196417,0.3767494368152593,0.4226868265577137,0.4645130870656031,0.510845472163048,0.5599522548457823,0.6080385215469704,0.6565241804017623,0.7030762832692319,0.7486612074147774,0.792702717344983,0.8363348590664492,0.88070856186625,0.9235880947280735,0.9477087053944677,0.923280956288667,0.8834869028200831,0.8409348533602876,0.804254839625967,0.7584918543349597,0.711258003403666,0.6627057001965968,0.6176235869878086,0.5773643444325813,0.5295692250263995,0.4794035836979338,0.43290477623440116,0.38712895627359667,0.34533071231247114,0.3104438315178819,0.2836743263096111,0.2630514381383542,0.23633277470425318,0.2024481221592308,0.16410098644236237,0.12223625624610501,0.07976446614567123,0.04190558288679558,0.010271904663054832,0.012924455843573157,0.0438623376726921,0.07450633053011424,0.10288808054265863,0.13372896665906908,0.16819675463711348,0.20721182866101007,0.2503021603318536,0.2962180769082796,0.3440561083164617,0.39164805133632385,0.4387306544281149,0.48833518779980767,0.53594678204843,0.5862507562621697,0.6336284446110543,0.6819847381715758,0.7277719761251966,0.7753640080539708,0.8192207517992023,0.8596894456556481,0.8958873518272992,0.9345340266793636,0.9472787523489112,0.9143246836553207,0.8691882671744644,0.8234732536885137,0.7750686645918798,0.72711597258891,0.6786088086287501,0.6315388548959371,0.5842660621015658,0.5363410944260318,0.48936944873748045,0.44376966083956537,0.3998381375248026,0.35815743316351156,0.32251731314088583,0.29789008529543537,0.28133393678281515,0.2507606078977067,0.2127639492781893,0.17481140627882097,0.13632216407029063,0.0993826665523172,0.06571934688684122,0.04682642172154505,0.06345082916399702,0.08541681922980349,0.11513722544295057,0.14726606365720607,0.18447211878739567,0.22491327489430613,0.26921864586302635,0.31489650356767585,0.36383496354235767,0.41582372188774586,0.4643563167162792,0.5130848033734174,0.5601712335979676,0.6042652566487556,0.6443351990888659,0.6906677493707212,0.7332655942513389,0.7725866358057292,0.815903906418046,0.8567315189356122,0.8860510624879536,0.8695654657818115,0.8314155282102103,0.7871848616235351,0.7407218584934627,0.6928522116418772,0.6447751894463489,0.597156034914792,0.5485799103218452,0.5020926549985631,0.45665716080062246,0.41000630866270216,0.3612931279135587,0.3226182149475221,0.2921149262447804,0.2720818959818272,0.24976367046013248,0.21849608090463835,0.1835683591515611,0.145769456382418,0.10503022400841089,0.06639657768063878,0.037459509325771356,0.04056924140600493,0.0707092327847324,0.10046685334116279,0.12663461244609775,0.14231939238457902,0.16947472078462844,0.16739176157388969,0.1502536468767005,0.18096132238598872,0.21841116400803684,0.2409346402772865,0.24513662042470497,0.2751038385559592,0.3213456072291616,0.3661012605045919,HB
0.16568085540999566,0.12824310853301002,0.08774203748198006,0.0444745997628454,0.015530536748013635,0.032643531146547056,0.06921036756213683,0.10748881714566394,0.14622197828673478,0.17894338991692782,0.20437898833471457,0.2248687651950294,0.2564669852289251,0.2977025511985969,0.34328596415828505,0.39178844072759444,0.43867532615074833,0.48817496775185054,0.5350028609035733,0.5852728518991737,0.6325215505833,0.6817584334921702,0.7306515080011524,0.7779017661334058,0.8248560965278611,0.874301076199345,0.9251765775784639,0.9724556833160494,1.0,0.9709858191684648,0.9252064039845924,0.8795507772714974,0.8307118043102024,0.7839549150030358,0.7337414743946318,0.6840103274444913,0.6370756698291042,0.5864615062793876,0.535735852241741,0.48860723932769345,0.4391784543495203,0.38971353709932854,0.3503628986350025,0.30353165322524933,0.26017958303996636,0.25068558900223925,0.2672024683276166,0.25870447065976687,0.2593638914485701,0.2554154637561046,0.23070225939101385,0.1972572246720654,0.15823711031251175,0.11526275751239701,0.07587255930224157,0.042572313855845034,0.024647410095937405,0.050959507391949765,0.09053919195753357,0.12850789335205515,0.16273265100604895,0.19047256325262862,0.2131063775073091,0.2357696320643956,0.27283238238031404,0.31783242429088254,0.36445330422982103,0.4140075046095757,0.465011949810068,0.5157923649330372,0.5630579522616552,0.611965158042852,0.6589848497831439,0.7082706190662909,0.7553885925250474,0.8041834910295795,0.850824143978012,0.8976933933919595,0.9452474445129049,0.9755534159358701,0.9521379905685616,0.9058431770122994,0.8592393282534703,0.8126562501628594,0.7630504327009977,0.7157821508850284,0.6665430802273584,0.6155454222944727,0.564530207228424,0.5135149921623756,0.46250313218966954,0.4123804668736093,0.36560399369975505,0.3155344082481506,0.26916739405090406,0.24157347514984273,0.24999630148928054,0.264188705765793,0.2540348316400154,0.25495648510622615,0.23601040557715258,0.20377920795175397,0.16563765195915614,0.12656261334273933,0.08619631911005787,0.04855895975298652,0.02750769680850096,0.053744323009591644,0.09060285450818317,0.12750452619650987,0.1609390294801507,0.19183265830755702,0.21238387674684112,0.2334115130714557,0.272988564205622,0.320550048846572,0.36750147224358076,0.4142572891232468,0.4638045023868276,0.5106009793402788,0.560926889273716,0.6087319524701733,0.6573227628781955,0.7063186029473592,0.7534953561770315,0.8005080765877386,0.8489506822525561,0.8957140712041538,0.9452865736140568,0.9883638406915707,0.9937682376261705,0.9506210111462183,0.9007506725190035,0.8539326555630502,0.8047721447915885,0.7578150728318227,0.7072412227240195,0.6588197733959287,0.6108331325139773,0.5599324815000781,0.5107242995588985,0.4634273559754325,0.41269489578517504,0.36429161306616087,0.3163100699212844,0.26829960189996505,0.24394042249842884,0.2535438991345982,0.25333055535559545,0.24738791852056885,0.256502552766133,0.24110166172435898,0.20971002250340465,0.17890731559293305,0.14291906005996213,0.10180249312562506,0.06131748082029109,0.022296142303788957,0.018843723895650477,0.053161655840918476,0.09017904431438462,0.12648371854663132,0.16009996573339402,0.18520335212311123,0.20726864542206624,0.23829722172665968,0.2806843093437773,0.3270124935244372,0.37387543319464367,0.423020002036683,0.47030348239058095,0.5194824604119177,0.5684374161622849,0.6159215840816579,0.6661100002438523,0.7128708846586542,0.761765559623526,0.808631484924053,0.8566294550393125,0.9045330254483916,0.9524781975362544,0.9964102295375974,0.9945881684322955,0.9506673739268874,0.9046677565376131,0.8577093924796109,0.8108786484080976,0.7603794065610494,0.7134589299808896,0.6733186133292606,0.6245416925525684,0.5737484401820241,0.5263987541588322,0.47725849239071816,0.4264241538349134,0.37885822886009257,0.3299916217529688,0.280787238218801,0.24045062906357273,0.22872499506333854,0.23632693571867036,0.22994537337596088,0.23583564779092914,0.22091483742556284,0.19215717825661016,0.15567541682779207,0.11552158795549705,0.07386819146281742,0.031488271417002944,0.0,0.010903162017843249,0.046749835454692135,0.0868109785690726,0.12528406285190363,0.15848206331888748,0.18480159836515908,0.20686771965664097,0.23461222889900002,0.27557804551350285,0.3199244130966761,0.3667619904560022,0.4153654084064282,0.4637827867113351,0.5117320313506006,0.5620068765195942,0.608779799107801,0.658913879285667,0.7098987199625175,0.7588752831994163,0.8063385890949919,0.8553097961175891,0.9022695084132843,0.9489612957520177,0.9906812283521893,0.9816053277718317,0.9391548931031615,0.8995652690415665,0.8535000180279024,0.8068279819885045,0.757004733488329,0.7100710541053012,0.6603291319856415,0.6095051588036611,0.5620730542563452,0.5130374580662922,0.4620507039157862,0.4119565757542407,0.36517023884744404,0.31478016169706,0.2667783864180384,0.24857584372264185,0.26049054857713205,0.25523028707696505,0.25131956035648906,0.25146346902418404,HB
0.8140951858570393,0.7805377624197412,0.7339026906513744,0.6827057708904958,0.6379085633513306,0.5951565619814079,0.5626716900559523,0.5382039678183981,0.5112451207963036,0.5019261798034029,0.48558803229599024,0.4642443011021027,0.4404466735919075,0.43694039195720324,0.4612748228354775,0.4990139449089728,0.5366489641387786,0.5670959232853121,0.5929812182549543,0.6050539490162696,0.593579746484741,0.5830805788706652,0.5974082422492497,0.6082664125840087,0.6227727286380209,0.6128109453353667,0.5675204299062546,0.5148452987619287,0.46605431248785223,0.4115512167380797,0.3577128538865335,0.30886800651149815,0.25431025060361434,0.20156434173049864,0.15230710121204116,0.10315904684703703,0.06278088883446487,0.07338931881523203,0.12435525747932363,0.17964450026538992,0.23495190109386033,0.2902593019223305,0.3455667027508007,0.4008741035792709,0.45618150440774086,0.511488905236211,0.5667962947340115,0.621942380749855,0.6722589164114756,0.7240943099596795,0.7793575705886053,0.8346649714170755,0.8899723722455457,0.9452624103404532,0.9934041005077439,0.9806130090190781,0.9340380212282011,0.8865323615622516,0.8379921330074311,0.7929416995240672,0.7774464044776541,0.7766766331527242,0.7326045323343602,0.6851959475440661,0.6397085785177012,0.5998970579830154,0.5676756128091296,0.5469720307555022,0.5226456060462492,0.49753429053811105,0.47715927373610256,0.4530349514104268,0.4356643650909995,0.44105639696138854,0.47099630905468115,0.5106375297540708,0.5439048425910069,0.5765275962403027,0.5905250244289939,0.5863827877234566,0.5735252872843422,0.5700998274157902,0.5801693879325043,0.5916360885180851,0.5973463583219645,0.5607822293240983,0.5096838947593665,0.4587921119862195,0.40762975690493164,0.3529649519232232,0.3039726693286562,0.25044817154061394,0.1963241596852192,0.14758024912536294,0.09498971609519036,0.047816706323136615,0.024752541386005245,0.05949582153118804,0.11413932869674726,0.16944645463014674,0.2247538554586168,0.280061256287087,0.3353686571155572,0.3906760579440274,0.44598345877249734,0.5012904852303066,0.5561067536238671,0.6051739906299918,0.6585531534868072,0.7138521241248923,0.7691595249533625,0.8244669257818324,0.8797428006743526,0.926644395284502,0.9106999810385727,0.8639182555908136,0.816290302824856,0.7667566673919217,0.7289880978517231,0.726146887227973,0.6929000108129728,0.646617761549328,0.6050118148481272,0.5680234117808123,0.5389008979717091,0.517672369722814,0.49461920875389787,0.4734651995156731,0.4488613073677157,0.4246377936403658,0.40971543645432473,0.42305944576268795,0.4557177433075237,0.49651332663902115,0.529969572561644,0.5566473013728865,0.5740773324178186,0.5766679383085282,0.5628142146887871,0.562811283446522,0.5789957965311772,0.5883630560060265,0.6012567268776219,0.5701329983573822,0.5205926016200806,0.4708808914764364,0.41671739056687507,0.3679347252246834,0.313882153516547,0.2586687338683067,0.20767146387531144,0.15657508974178047,0.10420973175171666,0.055154656089245524,0.011311622596382076,0.009353304158396636,0.0543605664914818,0.10931212050103256,0.16461937969613194,0.21992678052460213,0.2752341813530732,0.33045861470454896,0.38150255398172805,0.43257349400894207,0.48779544587699686,0.5431028467054659,0.5984102475339372,0.6537176483624063,0.7090250491908774,0.7643324500193467,0.8196348466031746,0.8734319273757121,0.9222808293139924,0.9748757273106026,0.9847236337809677,0.9407466132658511,0.8932460559412554,0.8450434188149771,0.8084093276447839,0.7735695271541763,0.7263180731806835,0.6807302389945804,0.6364356731928338,0.592697161715467,0.5590164184266244,0.5374293708941515,0.515423594173827,0.48987853153965144,0.4691279305610616,0.44560473367537123,0.4247342118874149,0.4222571721310826,0.44708221522839175,0.48509447319889554,0.5211545780531968,0.5551099579517169,0.5792650576208385,0.589043861668372,0.5822489535518409,0.5680954096253437,0.57671506009048,0.5896331676015181,0.6005311939327687,0.5914712144264751,0.5455898299154724,0.496625835838008,0.44373160456906713,0.39443522659150343,0.34140608659324,0.28630218044282496,0.23622121428492693,0.1841337568490582,0.12981191677763193,0.08105574420987771,0.029596131338060272,0.0,0.028283232522405166,0.08178169972187632,0.137084656480975,0.19238263826435786,0.2456037901876289,0.2947874663118122,0.3496461287338426,0.40495332183336785,0.46026072266183893,0.5155681234903102,0.5708755243187793,0.6261829251472504,0.6814903259757197,0.7367896619923693,0.7902094635726609,0.8392688581841077,0.8940518952482617,0.9493500802654331,1.0,0.9963191969253864,0.9507242615671607,0.9018033681711235,0.8553372386943863,0.8179752300389713,0.7804904675388278,0.734907498779988,0.6896497598312554,0.6441492617843894,0.6004046502920737,0.5660233558524779,0.5425567593878622,0.5239931903218176,0.5051591515874336,0.4841031059627974,0.46212460598860505,0.4458544693670947,0.45369527919206654,0.4856922959872929,0.5177939814053869,HB
0.056116740243430274,0.11798331432266107,0.17005114258625387,0.21874300619289033,0.24635434015381286,0.23919796779339564,0.29170456163278136,0.36657411773600623,0.43950016528351843,0.5108471747743346,0.5858398829770899,0.6610491159823311,0.7362583791416277,0.8112745382381439,0.8827168061902371,0.9514296662185802,0.9555707115883358,0.8860643778508914,0.8115341750486942,0.7409147660710469,0.6668398234990276,0.5916385377807312,0.5170985734895106,0.44678640836833283,0.37728702201464315,0.31268418174560275,0.26807778966859686,0.22539406843871024,0.17654134407238542,0.15709884200591484,0.1255736189294282,0.08462866606218822,0.10053276052350568,0.15102098088970828,0.19917920515778842,0.22751745127878398,0.23444993619613208,0.2655870420880325,0.29090586640664085,0.2657134069268553,0.19292692325125804,0.11809616835073555,0.047683769766820094,0.0,0.040262097882614145,0.11137907322343388,0.1834627830597485,0.25857751096644865,0.3337868512976998,0.4089130671144443,0.48113725385257977,0.5531229521589107,0.6282250195014254,0.703434359832676,0.7785449920588741,0.8396283738056045,0.8118623685674176,0.7391541929521883,0.6685681037615263,0.5947621243756764,0.5241338517724676,0.4511127492746263,0.38059404122285145,0.31016408075617075,0.2598757301766851,0.226135196681985,0.17451207941615254,0.12231246772453286,0.10682685969768868,0.15246872874073425,0.19672141732621573,0.23485347485012664,0.23704771020064697,0.2449064835702066,0.27772919483760905,0.3078224345060796,0.27625590891045193,0.20646472174660757,0.13445838985154746,0.07618135558435923,0.09925349230427027,0.1678777724007222,0.24164908001958685,0.3168478106825534,0.39202074232182826,0.4649569054615732,0.5362952386319051,0.611286091078497,0.6864953192175296,0.7617007116038876,0.8338298231909791,0.8474788962746389,0.7894209325514943,0.7195770723542865,0.6489272556859789,0.5754411629153016,0.5048324086333553,0.43239039863989115,0.36311358525563353,0.3002275632534459,0.2573573838886689,0.22276028613357735,0.17119486800332495,0.1112923917750881,0.0726899646868634,0.10118393363969014,0.1565715276842512,0.20539886285255893,0.2404717251909858,0.2436209229065016,0.26565508029994855,0.28544044713990857,0.24832043804334936,0.17951503182342599,0.11028960521335618,0.08792291543936726,0.138385031123611,0.1982249289420699,0.25818765788503084,0.33034707594034596,0.40553309888096467,0.48074243921221527,0.5559517795434663,0.6311469057736379,0.7047387833231133,0.7755952131112518,0.8503905600776556,0.9255929512199086,0.9965884490021946,1.0,0.9303717165204877,0.8579663951246803,0.7941488150573601,0.7238747535020693,0.651234298710041,0.5797186785247894,0.5055551662676578,0.4351660337885721,0.3649968506830086,0.2999149870200368,0.25031729211132536,0.20855441832278143,0.15717298016812364,0.09713836245906171,0.04929441320688899,0.06512213541206135,0.1182603970963162,0.17281788503934215,0.21272873045871077,0.23743771529802815,0.27093644725775823,0.3095659683756773,0.2875091717886116,0.21903347056526679,0.14881022512168152,0.08875492651710282,0.10505773149578645,0.16800631405512745,0.22850312410473161,0.286233132523404,0.34929093176924875,0.42056230445236276,0.49279482817775544,0.567922034911504,0.6431313752427545,0.7183407155740054,0.793550055905256,0.8687593936523548,0.9434799973488477,0.9874294177258318,0.9357312648470695,0.8608813493968082,0.7888562628407916,0.7166894134047428,0.643278551310305,0.5724274885295737,0.5003532994097049,0.42944398559132857,0.3618134290693591,0.304967611451199,0.2596065601677503,0.21251823017007965,0.16067035661823637,0.11932106660444908,0.13334139113260557,0.18045823897373903,0.22496310514904405,0.25308295460396457,0.23391193285526357,0.26137257372271394,0.29597111322159275,0.2913974182624728,0.22791895739101786,0.15598057763100015,0.08454369869948697,0.02402016274787344,0.04176878310231291,0.11113441711275385,0.1862289863835338,0.2614058850944273,0.3332718654165274,0.39539250525173597,0.4678848827559323,0.5430781086759562,0.6182733110561809,0.6918694573237136,0.762723294697119,0.8375088508434441,0.9081627647082493,0.9093682579098907,0.8393143571218913,0.767024229732181,0.6951137137120638,0.6200196022849414,0.5452242607452584,0.47443576451004876,0.40372066615920543,0.33634125961866057,0.2786164167731555,0.24664625734770917,0.20647336611131495,0.15793760910964705,0.10817158132921267,0.10233790623258698,0.15352462209340034,0.19536697316996132,0.2321502053929304,0.24165849137953144,0.26689161242413906,0.2971051534976479,0.2729908997132646,0.20128666046650634,0.1310996826835924,0.07819234198597358,0.11070943360152252,0.17977713974663945,0.2541387374558475,0.32934505842528417,0.40455114107394574,0.47890230333539674,0.549480602660821,0.623786837379301,0.6989925669602619,0.7741991219546758,0.8480655164711726,0.88590889554905,0.8319519793500945,0.7579935657439225,0.6874010132893609,0.6134070499530133,0.5426399718743973,0.47026368099416405,0.4000833922098761,0.33089629433067325,0.28818217423916637,HB
0.22174533754460402,0.24655637813940012,0.25895240311734236,0.25033258458466523,0.22376949857063466,0.18594860990633522,0.1454836596788479,0.10934693493370928,0.06386446028022319,0.018576838738478818,0.0,0.032622453321302314,0.0769795367449485,0.11854240415726158,0.1543559664340255,0.19007202101111786,0.22424988777648447,0.2573653451221978,0.30043870744315504,0.34673519478686454,0.39309862956103625,0.4394620643352073,0.485825499109379,0.5321889338835503,0.5784361775422692,0.6216051239792691,0.6656761685974412,0.7120020833488362,0.7583655181230079,0.8047289528971789,0.8510923876713506,0.8974558224455219,0.9438165527299359,0.9875980791671605,0.9878934487459491,0.9441923996842766,0.8978378710963278,0.8526427614618676,0.810329848912101,0.7643816993543168,0.7180187122889964,0.6716618064110188,0.626507409682031,0.5841740888397396,0.5382051602647925,0.4918480126985888,0.44664313196681527,0.40434224324983503,0.3597555289237232,0.3174692448196518,0.276915808313385,0.2498913738535572,0.2431098280901105,0.24437670097226016,0.22224227360762738,0.18901371737166228,0.15448077485463152,0.12109613625336824,0.10849353379779358,0.12895313726894964,0.16358091478793857,0.2005892148612597,0.23017607612058488,0.2471369898438106,0.2503890089344398,0.24335669351500366,0.2219600971332869,0.18937457986437223,0.16655572898478177,0.18266901059970364,0.21299973169206687,0.23865913615095447,0.2548131435692381,0.2527365618228753,0.21740017249459842,0.17266178774061358,0.12826545178159487,0.08541676635978102,0.04258080016508503,0.014235674227046413,0.02664798094193821,0.0683255848230786,0.11444203147122711,0.15775412007188128,0.2016723435885398,0.24799169629836215,0.29435509756421374,0.34051810768712454,0.3832810892594799,0.42782352175193894,0.47416828053781923,0.5205317153119905,0.5668951500861622,0.6132585848603337,0.6596220025492353,0.7058111122670229,0.7485342552854092,0.777587312796797,0.7517483094130936,0.7069710172698503,0.6606174178047529,0.6142614471242424,0.5691812695991044,0.5268033369095272,0.4808040683690865,0.43474817899075446,0.39538220239771127,0.3584176715086279,0.3172630325839202,0.27921011183073996,0.24932722301282528,0.2354940697537905,0.22489570923306246,0.19879805360985003,0.1664760432512502,0.13233200458180372,0.10202491022845084,0.09472191638698646,0.11993550295723576,0.15399191447534966,0.18762285011147972,0.21948805772297464,0.23560113260858317,0.23791774721098913,0.23633425715254897,0.21736167283148278,0.18375771771000549,0.15643546561290167,0.1621868181375632,0.19243165968530984,0.22418516568321267,0.2445078830562526,0.25204866789860647,0.22425195158139843,0.18156435722184727,0.13776053811909272,0.0921475121546187,0.0499822841783909,0.010000112227037783,0.014180674697289342,0.054430596185995106,0.0975076842761674,0.14374027429469338,0.18987039012517382,0.23250790097512275,0.27720515664774814,0.32355347739977813,0.36991691217394973,0.4162803469481212,0.4625615269817739,0.5060330435302917,0.5497866587904198,0.5960934964134067,0.6424405153364025,0.6829941832685299,0.6715196417448758,0.630295138629806,0.5843694305230406,0.5380346988251318,0.493754310559836,0.4507703392308636,0.40509674766191306,0.36293473723652336,0.32059295086878825,0.2856883916323225,0.26216235313904046,0.2597232090109004,0.2533304070627035,0.22515372523247512,0.19137782714736173,0.1601417006617999,0.142297170622524,0.15703908314916282,0.18506165829341703,0.2178885561153956,0.2468508885496501,0.2592436997997912,0.26080732944474505,0.2532166538748194,0.23797369795777645,0.20623787417300676,0.1829828889325985,0.1983756882412011,0.23042566834802924,0.25641890098907416,0.26895637453761057,0.26005434213239553,0.21999299317282184,0.17369380308968507,0.12824106344203956,0.08602861312091148,0.040525657624498224,0.003409708961288671,0.009186128970945506,0.050298039027559804,0.09536038311120643,0.1377055857544397,0.18366723037352495,0.23003028931523817,0.27639372408940965,0.3227108448063629,0.3666378891278058,0.4099398560740263,0.456206873554695,0.5025703083288665,0.5489337431030384,0.5952971778772097,0.6416551246874763,0.6868706057713497,0.7291813317888597,0.7751108234497733,0.8214737621166667,0.8678371968908382,0.9142006316650099,0.9605393170116697,1.0,0.9842949397236215,0.9387316169052845,0.8923682317975942,0.8460047970234225,0.7996609755970548,0.7551636369102258,0.7123630486946394,0.6661916193475749,0.6198282127839657,0.5735113233318158,0.5296391635008723,0.4862833960103924,0.4400150633186791,0.3936546872936809,0.3482074987489583,0.3070652409215322,0.2695139462132925,0.2411257642663044,0.23011634554823057,0.22592892842955226,0.2045147018256286,0.17215362261743894,0.13610009089853425,0.10828478512891071,0.10608938043455785,0.13364850390049987,0.1708512538861795,0.20472653697942722,0.23373906303210823,0.25152959245187956,0.25291256188074474,0.24621593770808603,0.22810359731866958,0.1954851786693964,0.17276438054455945,0.1884030148435979,0.21827015079526657,0.24303369189363355,0.25699223310990205,HB
0.18681399524899023,0.1691251678117256,0.1787745100255922,0.1954024832192387,0.19233972471899752,0.17016290583732463,0.13489898416411128,0.10365735281673838,0.06403163901486253,0.0326811594116696,0.0,0.003632390444882727,0.031687277246618795,0.06641618110817382,0.0965958031148777,0.12956665378156607,0.15835477608267334,0.17764691733367588,0.20445024993236616,0.2428177164127685,0.2870144661069882,0.33259738860706034,0.38156202804220407,0.43134418224680715,0.47708296475650025,0.5279562958492847,0.5793415572263301,0.6305718576099233,0.6773931411620799,0.7257851295112727,0.7769904146035684,0.8232193594022765,0.8512530188070517,0.8276373881785568,0.7834452756302301,0.7356162670928288,0.6892958446260409,0.6381722564782195,0.5867865579064502,0.5354008593346806,0.4840151607629115,0.4326294621911413,0.3812653165692981,0.3323411213577159,0.28887596426356654,0.2498798697820468,0.22205256844913723,0.22074904227561865,0.21283328797070133,0.20069446954188663,0.18741176199264364,0.1684941111382734,0.17685416489449812,0.19294231034316467,0.18459597359031887,0.16473087941512787,0.1386781876091252,0.10848316168257588,0.07852109642762506,0.048025867564720714,0.03655044584567735,0.057862137292600924,0.08630164079672098,0.11813473489987292,0.1434156838521925,0.16828350058629216,0.18684780320340022,0.21503353103472778,0.25458519872614205,0.30150782996817505,0.3487062639953411,0.39662010023336136,0.4479448921616753,0.49917084874711604,0.5459514294048482,0.5943873642968742,0.6457388081898523,0.6971245067616225,0.7485102053333916,0.7998898051211099,0.8497019390613052,0.8954120902891143,0.9424740931687101,0.9589873123344972,0.9258353418701446,0.8763755956707895,0.8303482012041528,0.7809825798229169,0.7296090600384646,0.6784626501265127,0.6321034188090371,0.5831806720797326,0.5318151039050711,0.480501364856631,0.432767389306252,0.3853511844612789,0.33697614057076164,0.29188561283813286,0.2470550894085719,0.22062741445199974,0.22077845360072135,0.2201789694848848,0.21690671334565503,0.20642742286970206,0.1874174669190094,0.18728595343051158,0.19609551743367182,0.19131376557291913,0.16672569359844336,0.14003073723262482,0.10167626308113054,0.06838801612129197,0.033373999431745016,0.02028427322632087,0.041101223983166735,0.074917073135357,0.10594287554241255,0.13517688671081807,0.1611203952221525,0.17858393262826855,0.20092798739535955,0.23885005597892128,0.2836287107602531,0.3332246979298781,0.3814130641136739,0.42842095776556466,0.4796697113863513,0.5308861905940034,0.5775779649366286,0.6261097831948359,0.6774636274145294,0.7287278884018642,0.7758673945831571,0.8239218906072769,0.8742758266871797,0.9191157217744259,0.9449408557845047,0.9152205471703605,0.8646820837716873,0.8133060651698227,0.7637080180499634,0.7178421850215198,0.6668884620811324,0.6155029891012,0.5641278919596415,0.5146678051746587,0.46871991840642524,0.41778676871580656,0.37016878294062283,0.3250102788491853,0.2791571191686135,0.23444909938884484,0.2079617578776527,0.19990805234799058,0.19666102876699876,0.18952373088608532,0.17248784640402004,0.166528133735119,0.18612879866871568,0.19641482478273264,0.1801171739881413,0.14970280423056437,0.1148421478504631,0.08028651449159896,0.04763129386369669,0.01951544592035903,0.01752089958981884,0.047599750957886044,0.07704483671583295,0.10902507694596486,0.1359202335459695,0.1598856791172132,0.17727234841074968,0.2083840673699755,0.245875205180903,0.28289816067201734,0.32898685753315293,0.3756864485410907,0.42415434455517653,0.4755065885570606,0.5267771677962536,0.5739758781876192,0.6219705546463148,0.6733005045852378,0.7246862031570063,0.7759409867665534,0.8226186199477836,0.8519917145393672,0.8278658576186912,0.7815956975977925,0.7341673158912259,0.6828961015253945,0.6340286914855513,0.5876136441281865,0.5364644308604107,0.48517574500635274,0.43785052737592767,0.38999655481271,0.3391275909865268,0.2945383487018949,0.2525106609527745,0.21700600700454253,0.211330761543022,0.2116544970700609,0.20472581977535875,0.19391111157381946,0.17855327274267108,0.17682379980129448,0.1962818267788342,0.19935210458082153,0.17588993579684686,0.1495878061740019,0.11624403492095126,0.08527336736586255,0.05832626292439169,0.06061968839304055,0.09046546438523317,0.11962884040220545,0.14965881540926151,0.17269802576198012,0.19102367675289034,0.21541539158282808,0.25254125328419375,0.29848735342394317,0.3469952038205779,0.39710760904069087,0.44270695170835683,0.4926182731191411,0.533362726268801,0.5760606164743225,0.6243228062832056,0.6756707496997247,0.7269583092407901,0.7743191309758499,0.8221452774297489,0.8734536498487344,0.922871948369479,0.9684240497891301,1.0000000000000002,0.9740933220798602,0.9235737994033337,0.8721921738950118,0.8221526065687903,0.7765143037471058,0.7257795151954878,0.6743944638688464,0.6230252175527333,0.5739147543401384,0.5276937061585452,0.47664082244169137,0.4284036253209669,0.38157871223246054,0.3347368516061062,0.28669244546017447,0.24365827738272827,HB
0.1352952269623493,0.1558678646610807,0.18497755094427637,0.22908413377508752,0.28019521807683345,0.3354573600768713,0.3910239551128374,0.45105713217799615,0.5056230264529886,0.5641952546946218,0.6246484799329746,0.680036216291453,0.7375629088657256,0.7982062940220132,0.8586842790156612,0.913422201426042,0.9593186504145834,1.0000000000000002,0.9767673461886524,0.9180343947328009,0.8589191195903647,0.8046391821210153,0.7446880745127034,0.6840087096765515,0.6233438807240885,0.5649608040262974,0.5102544749124398,0.44998533452086664,0.3893052662043923,0.3287183855504665,0.27227086565656555,0.21698149526445842,0.16955394545121427,0.15091119500108285,0.19132681233050808,0.2199714827639918,0.22683120253697764,0.2116419311694826,0.18793636020452587,0.16158203311318298,0.1331250760649063,0.15082226371560425,0.1793190641127118,0.19049238694821002,0.1760844296277453,0.14434307087798004,0.10619497260680033,0.06670651433527097,0.028164948430388304,0.0015075827801878106,0.008782867268896544,0.04265562795411837,0.08021479018959443,0.10859735919876012,0.13211523421252247,0.16201687763796224,0.20319172294651278,0.2532288923449044,0.3063906979449087,0.3626880597968707,0.4211672803145219,0.4757426249843266,0.5359410304533416,0.5965432147830734,0.6531984794773593,0.7093983417716614,0.7699637533318204,0.8302879030608998,0.8851298463907262,0.9386532358751738,0.9446562201250186,0.8937753830163511,0.8332023279343319,0.7725220703027385,0.7118418126711441,0.6511654308006791,0.5918115344008634,0.5376301798539607,0.47781737390461987,0.41713836919898517,0.35645811156739127,0.2958060983375612,0.23805283895746876,0.1828709263589876,0.1224956364792682,0.07487136112643733,0.10173696801511878,0.15319734789579886,0.19553021454701391,0.20881085783220343,0.2058501388438636,0.1950623090953203,0.17135206418355087,0.14363236849742012,0.12668154683286925,0.1505531865814853,0.1764339973355178,0.18054078747464497,0.15999797728385023,0.12501251049184137,0.0892134359586525,0.0550081914444156,0.02021053366853387,0.0,0.016003035080553785,0.0498231879241513,0.0815546180613076,0.10582406681488465,0.129764436147759,0.17286303713252993,0.22301787571405174,0.27620902497775646,0.3343068394484674,0.3911085460017725,0.4471466147269585,0.5076353446089237,0.5645325506866172,0.6204959454568266,0.6810389993404689,0.7406522364469275,0.7947991186006307,0.854016856292515,0.8976776918902825,0.8766399726812966,0.8218308741545479,0.7656611104455633,0.7050881920915741,0.6444080076044583,0.5840607883369024,0.5292105221915278,0.4710470608077211,0.4103847486194152,0.3497068159260768,0.290131744730314,0.23598802599758995,0.1763602622812206,0.11762220660679801,0.10675881746135318,0.15107917091128997,0.18272066819398036,0.20505595621418982,0.2013807128094358,0.18178884030385634,0.15408359522661108,0.12056670275055392,0.10972565931638001,0.139611411168179,0.16906776353591058,0.18179454226239988,0.16893052797001795,0.13578612178103056,0.09468797083555502,0.05736786335904931,0.022147614386909487,0.009868425583945184,0.030819553376416398,0.0628763064736444,0.09630612505601355,0.12670584172613397,0.1492396346218261,0.17757601275587542,0.22204918313455857,0.278883271595336,0.33322750012485547,0.39301379383081114,0.4480664890196322,0.5059822501385194,0.566633204932877,0.6256862773515603,0.6799591328435459,0.739982551879226,0.8005540377843856,0.856712685954834,0.9133495924219817,0.9670132189738097,0.9691829192443018,0.9191723477999332,0.8632540342070814,0.8027087077417268,0.7420284501101329,0.6813552062730197,0.6223935796930768,0.56804792027543,0.5080046115611372,0.44732500663797303,0.3866447490063789,0.32608561260967317,0.26996042427034905,0.2132287570339344,0.15273701241262772,0.10778764826608644,0.13656753523743648,0.18634217392317765,0.20211627965755596,0.1986789267016038,0.18316524789416233,0.16140623315546665,0.13043779022747692,0.12393822548220612,0.15555395599830746,0.181924741116944,0.19160780394840327,0.17544467954987542,0.14252331884060454,0.09998393727463073,0.05857184619609246,0.024705732878747222,0.00383075524061649,0.015472891621605811,0.052155845008954094,0.08638684309042155,0.11487934220940077,0.14035885879701726,0.16549153132508,0.2037347164426937,0.25437291066154577,0.3096326752577341,0.3652312621309781,0.42573389662653693,0.4864141439318497,0.547094401563444,0.6075548781284095,0.6629083105268887,0.7204727642354654,0.7811175874040102,0.8417076435150641,0.8981589718976999,0.9539953595627171,0.9936323712731643,0.9678214124221942,0.9095480580735316,0.8550481661344593,0.7963541771507587,0.7356841398687182,0.6750546734646747,0.6199753050921804,0.580767655443704,0.5350762825818474,0.4757756755018603,0.41721351231062176,0.36962245174951325,0.3205578387984813,0.27089341598535466,0.21564838798852226,0.1553920193928804,0.11469193380332299,0.14670977136034224,0.19098263307868701,0.20974639998065903,0.2034465989837848,0.18171603975925277,0.15846402791810843,0.130043122350064,0.12646542861189047,0.15727320827321667,HB
0.11559489396265621,0.1336780046470748,0.15263031367333568,0.18359261803898852,0.2251423018435167,0.2680687626406434,0.3136533006792247,0.35957833175255527,0.4072767590514489,0.454716432249361,0.5059919450716698,0.5563773131955064,0.602304835834694,0.652266331587401,0.6982943793130029,0.7482737616042071,0.7962454081017475,0.8438341886447186,0.891649991899334,0.9374822495641807,0.9773645644516459,0.9829860337454638,0.9470334605453784,0.9022891795226978,0.8558386627769582,0.8047157883100621,0.7533259269512725,0.7028797516160515,0.6569825329990217,0.6074306240079145,0.5615968940218189,0.5143344283430057,0.46738056360541214,0.4220762117864433,0.378474267887824,0.33495743070604356,0.29044190266693837,0.24549907723520603,0.21008126505646463,0.2086153581278597,0.21220657470651616,0.20794709818236357,0.21681438967341593,0.2315746610145356,0.2355361147793359,0.23632709910185257,0.2185738661196438,0.18990058890843897,0.157496289343923,0.11808860750764671,0.07593368712568693,0.03663613942179922,0.0057711327286310565,0.007146523392375204,0.035945738252669,0.06325260370476549,0.09163555691200365,0.11724598593819102,0.13867875174422084,0.16386663556800307,0.20096308582848132,0.24607915170379624,0.29058662954323944,0.33577996417329314,0.3819269752205551,0.43069025435960373,0.477351011739091,0.5263943307229039,0.5777655255112778,0.6290381200163936,0.6764089877849787,0.7245554475928987,0.7718259728867937,0.8201474228714251,0.8698886447321647,0.9160264477229335,0.9643366480304566,0.9999999999999999,0.9929267728536294,0.952107748914302,0.9056031348791654,0.8580371989523076,0.8119065246871086,0.7622795904098741,0.7147756820875591,0.6666473393148832,0.6153135070897299,0.5639708709845496,0.5156936055132347,0.4698469208252435,0.4254507441707728,0.38309043173790125,0.33941604952138194,0.29531861675941695,0.2495746702707532,0.20977009640954292,0.2032895811078851,0.22047160870022575,0.235646603492213,0.2379859640484122,0.22485125126456762,0.20537815720045816,0.1762619559869888,0.1413092550240579,0.1031741083507719,0.06498208739426958,0.029412785393269636,0.01449915273487945,0.03446051201582612,0.05890679404483967,0.08640020907268331,0.10922786141850171,0.13131084437189056,0.15718785938432467,0.19514983951750342,0.23879761501912988,0.2845470495151735,0.3313525191577883,0.3772647104025032,0.4231905521935718,0.4723655802613492,0.5186151789226267,0.5680320937085747,0.6148589395276315,0.6636295674243772,0.7112028480553626,0.7584431648799584,0.7976452148564043,0.8403383009383428,0.8900116462607622,0.9355467491309629,0.9751120104095047,0.9698502099112757,0.9285431312118598,0.8822100693494171,0.8360492388731472,0.786593344664735,0.7379096460086713,0.6909339340233577,0.6416429823741624,0.5952774859790718,0.5455136180729067,0.49955078952130794,0.4516730845670486,0.40668320596455165,0.3646283803970777,0.3221080894362657,0.2745598400017809,0.22989033604513642,0.201156512296636,0.19816380377735976,0.20179376653329395,0.20806244458765988,0.22217444067697112,0.22198542648230524,0.2071584298674508,0.18362938959123987,0.1509108602543764,0.11395898366199397,0.0749105018372106,0.03273414526773677,0.0,0.00287517160506634,0.029841513808853692,0.0599064455187549,0.08599582467661093,0.10891678650257386,0.13187037728321382,0.1543144242478317,0.18919686857922569,0.23149045074217944,0.2764581900036335,0.321511416606853,0.3680288291308035,0.4149637385502015,0.4634017251104673,0.5113204414505744,0.5586539864047103,0.6049451303015195,0.6543938489310205,0.7057726138543067,0.7569835831077868,0.8039406001627193,0.852587316655241,0.9002541670841068,0.9442569460182034,0.9659863998840429,0.9401552053031258,0.8948601247211813,0.8479676727968474,0.804495211385632,0.7690770361245617,0.7325056616777618,0.6857012804682948,0.6350168301002136,0.5890314543619036,0.5390867540864525,0.4920306948631098,0.4434222786626135,0.39326292292362186,0.35006385934997086,0.3074703862852558,0.26362907858246254,0.2212005519816035,0.1972832781238899,0.19363435796231865,0.19666298122007897,0.2044512491008902,0.21418682512848675,0.21939236450400645,0.20934220857208452,0.18356067001054555,0.15082865070591656,0.11177888011179171,0.07430541048737094,0.04352303879349495,0.031552017580102065,0.05401300107302898,0.07840406421648949,0.10185304053697519,0.12006162270813314,0.13693491250583645,0.15952426933453323,0.18322294352773538,0.2221630094600361,0.26624297156924015,0.3112932160854326,0.3585375145330648,0.40980233654047094,0.4606806947765071,0.5067607764928085,0.5551202818787796,0.6012190891009498,0.6497559150255997,0.6964631768773776,0.7465957597999086,0.7925270422616099,0.842944753244781,0.8900690174678293,0.9354275777851097,0.9676973418792708,0.9697292712040492,0.9330490331020359,0.8882972283507421,0.841915506462873,0.7908144087091428,0.739441102036925,0.6902801862093252,0.6436863682188921,0.5934878032338841,0.5476379089201898,0.500348622260509,0.45447819957864455,0.4094487453903183,0.3677057427898668,HB
0.9691577622074381,0.9583626402756891,0.9410153724666959,0.9139866505429368,0.8805058445307645,0.8447051083411787,0.8269179820424568,0.8179189500784378,0.803137437997492,0.7753899382052276,0.7687529152510555,0.796851794177168,0.8336041314197438,0.8671239517147351,0.8948045404358473,0.9086008627965751,0.9076935325693767,0.8989081215477388,0.902639456463592,0.9209670445495044,0.9413470714389927,0.9511279517711275,0.9553243807425427,0.9132917983407245,0.8636726004003152,0.815474316784468,0.763050693427727,0.7112856357564841,0.6643298994176796,0.6127752544426239,0.5606751862334631,0.5134859015850959,0.4624980188066575,0.40992523896134964,0.3582934254077132,0.3113146409715661,0.2596492016492978,0.20706919523599726,0.15479203849258039,0.10720905592636165,0.058028851893442146,0.03687572856718563,0.0719722317582765,0.12380036124260901,0.17638159258144465,0.2289636271534346,0.2815456617254242,0.3341276962974142,0.3867097308694038,0.43929176544139387,0.4918738000133835,0.5444558345853734,0.5970356747980052,0.6486379953451289,0.6956004849872344,0.7473114758556219,0.7998688826387439,0.849951493397761,0.897731843945982,0.9462594968984985,0.9845548942164044,1.0,0.9894822236610004,0.9729252221132645,0.9492706107746585,0.9173459450425727,0.8823615313490394,0.8494035052546471,0.8160775497355932,0.7912519772389599,0.7966867407352407,0.8273293502384405,0.8640905341782434,0.8961507373865853,0.9177458967264143,0.922355038482118,0.9128342692546261,0.8957273637420695,0.8956109927720299,0.9149199683922624,0.938754990998683,0.9596999290233836,0.9675809200637906,0.941522025878099,0.8912676542594622,0.8527109893727529,0.8068683622877546,0.7544783367448649,0.70502686760551,0.6566139507299888,0.604180183857085,0.5539351799389325,0.5062116704286714,0.45388806523065467,0.4013086542641214,0.34976261613479903,0.3027661790051073,0.2510323610097657,0.19845279452811077,0.14651459499537361,0.09952974659498504,0.05759843081008853,0.06853217180675053,0.11722957371157483,0.16978640557957653,0.22186382426081258,0.2690528060391763,0.32006590872485324,0.3726409590775675,0.4252229936495571,0.47780502822154675,0.5303870627935363,0.5829612214813928,0.6338732942801031,0.6811007280424783,0.7332414349184739,0.7858223732971721,0.8377560674138045,0.8847933042487615,0.9341537799456325,0.9739829762493784,0.9915768410049348,0.9794321059081164,0.9653948885719499,0.9437060098243331,0.9113060443301104,0.8785506391908362,0.8426078289963725,0.8094544805861175,0.7769062979501988,0.7588836861873349,0.7797486525666868,0.8151841236261232,0.849826643292749,0.8799828493766964,0.8902738837658695,0.8825108322573707,0.8764534874732945,0.8692075324825241,0.8813553320569318,0.9027095259635673,0.9226601701990711,0.9241171412252922,0.8946602414662761,0.8440252615193833,0.7914569827574891,0.7403912833890036,0.6932356733516392,0.6411854913454496,0.5901991759380514,0.5429935082891879,0.4909300936898781,0.4408202722806665,0.39298246530054054,0.34063446343715836,0.28805246867914874,0.23549894858792514,0.1855441789728441,0.13757449029672353,0.08519852166477238,0.03312856917598572,0.0,0.028675078054224423,0.08019565456022804,0.12736232172651824,0.17841048886740046,0.23098601309851013,0.2835680476705014,0.336149490072467,0.38815395291480487,0.43522393927375475,0.4864268757058218,0.5390041855160361,0.5915862200880257,0.6441673405233574,0.6960799950482748,0.7431226007610849,0.7944442839004495,0.8468333459577233,0.8948453331884496,0.9408379855325866,0.969468880097544,0.9669210373946588,0.9550245390273238,0.932251915845715,0.9015007051914015,0.8690211945134301,0.8353985918660518,0.7997537920919533,0.7695588158792159,0.758104835335043,0.7813269807432517,0.8169845554188411,0.8534610430553069,0.8831585723221467,0.8949562482668945,0.8917045796933223,0.8779066847293548,0.8770619216514985,0.8919230061800405,0.9187444585827549,0.9405032500263908,0.9532484407196693,0.9449537397641363,0.8997070105120428,0.8503129119497637,0.7977822654192699,0.7457730352599425,0.6986485957469164,0.6475037450343326,0.5950806845728929,0.5468185323966261,0.49719586767895657,0.4446843032928213,0.3947398991885644,0.3467614183993774,0.2943833898709303,0.241801381413485,0.18921934684149538,0.13663731226950582,0.0841614910880748,0.04088728719127971,0.04832083302654838,0.09656142403507906,0.14911573366777436,0.20005876846502774,0.24726658029492082,0.2993956984871427,0.3519774505083066,0.4045594850802961,0.4571415196522857,0.5097226183889276,0.5616300130159164,0.6086712608292228,0.6599995613429794,0.7125776574978222,0.7651236909733581,0.8148853703650958,0.8630168625296135,0.9141029308713731,0.958888266180602,0.9892844700506664,0.9929812170659151,0.9812215179803241,0.9566984467538779,0.9286025750815705,0.8974493482265666,0.8631406263776347,0.8284433411790117,0.7949799599820433,0.7812610902556743,0.8024855544680514,0.8377308317741319,0.8764809844582546,0.903778338437992,HB
0.23029705672723066,0.2124405582941028,0.18266728857225345,0.14515644254544613,0.1046841829583588,0.06418560399373485,0.03484474426987205,0.05494871119729405,0.09488134952694594,0.13528457235466795,0.17253855410486585,0.20734906517317242,0.23809189878534165,0.26354093290682845,0.2901509890371994,0.3277726560364306,0.375218744765374,0.4209442255780219,0.46903824889815915,0.5159130344603128,0.5627468192884183,0.6122873753419026,0.6601466782782771,0.7061090602631598,0.7555160882125654,0.8049031992572625,0.8469989160855319,0.8878480767526512,0.9368884283277678,0.9791038253752858,0.9741966675484063,0.9317159750142489,0.8843057864522169,0.83470584897391,0.7850892351140218,0.7371446938884835,0.6912544297282722,0.6418619092273291,0.5922298840185259,0.5431253995322441,0.4976370429357705,0.4490137087141167,0.39939909702061727,0.3513608857880052,0.30850610486129226,0.2916569231629871,0.28135335333163114,0.25930583329526924,0.24226934243181542,0.23144773565403232,0.2060794682402235,0.17145154733326695,0.13164166688179302,0.08737876075092743,0.049154141918145045,0.0550605499466853,0.09274047136268493,0.13170033883451426,0.16982673738967424,0.20728130732426142,0.23698953050446903,0.25928092634119626,0.28409695531116985,0.3217894611147617,0.3651174471904731,0.4127201857604198,0.4595306829057232,0.5064172859062835,0.555960429009159,0.6037727269268339,0.649771560342168,0.6991893259198242,0.7481526933404853,0.7935890379682659,0.8412752551145727,0.8704643594742395,0.84749277785666,0.8009776275152752,0.7513892682302937,0.7017562315088622,0.6521231947874307,0.6024901580659995,0.5528571433867299,0.5034031217894271,0.4572905920531002,0.40962157356675755,0.36021455528743906,0.31429890089339874,0.2781108367100974,0.276105510360675,0.27111215921619647,0.2485726476294341,0.22808544110175144,0.23010643918542195,0.2134666022159485,0.17967258694311627,0.13981902996461548,0.10114312260839398,0.0841480029709415,0.11144868133059371,0.14921370285766877,0.18695722392066527,0.21815467854078896,0.23930966533749143,0.25313616055643895,0.2823560812065732,0.3265459175442865,0.37483013093336537,0.4202731208491518,0.4692076326511049,0.5187272806565458,0.5652272898117566,0.6124523480036815,0.6607327545720979,0.7053723342789305,0.727526835340688,0.6938094412246557,0.6472413714481383,0.5976951366882516,0.548601281032156,0.5031185822754726,0.45447908336838194,0.40497062353227864,0.3585235222138682,0.31152619743437004,0.27162320951180563,0.2733078147671215,0.2833655859067359,0.276160858386178,0.26162069722879144,0.2703515850427014,0.2614572916977277,0.23428861637555232,0.2008468992517033,0.16440209972522746,0.14185638063719286,0.16996553337250586,0.20638180577206244,0.24041961638935283,0.26957128339543557,0.28933086209845815,0.3025679560273099,0.32395733770514024,0.37062495666423223,0.420237946710896,0.46888552796070504,0.5143653977974932,0.5634533208294755,0.6126290502401596,0.6581689264186313,0.7063135803965691,0.7493809506664234,0.759353523115874,0.7204471871033483,0.6734049401578582,0.6269149153185464,0.5773964487372124,0.5284566520530477,0.48301158758481544,0.43418696371402243,0.3856504227151739,0.34050675752521775,0.3109216421574329,0.31485820153941957,0.3107178674443484,0.28558641603313406,0.26983651985346346,0.26441817974510606,0.24366713834945064,0.20974036339569102,0.1717943975235141,0.13010405272781655,0.09465072582014344,0.1004485085602862,0.13663030512599572,0.1765901863642484,0.2125106762621185,0.24758718898913923,0.27116230642445927,0.287370321710665,0.31886097367534083,0.36171076383027867,0.40691021767301916,0.4543517418639075,0.5002403457761356,0.5496226468006266,0.5990387995303498,0.6450184868956012,0.6928525073547319,0.7424322870052281,0.789744569629084,0.8279445528702568,0.8195476759170132,0.7766944272242459,0.727742189485682,0.6781108297449446,0.6284777930235129,0.5788447563020823,0.5292117195806508,0.479584169115682,0.4310522280370931,0.3855252569953308,0.3365008158741599,0.29850286124703074,0.3027248884759336,0.30122397833194414,0.27718115974997404,0.24222487972050566,0.22567913434890308,0.2097643177135854,0.178608163896817,0.14034535472335663,0.09945730936268626,0.05875985508926518,0.017940874513107996,0.0,0.03155906690283983,0.07247249308230885,0.114000520667777,0.15598553063292986,0.19449156092807007,0.22715778042261003,0.2502862151451667,0.27692030156967173,0.31251433772938597,0.35294346017727773,0.39796556508914505,0.44433660959231946,0.492336953739828,0.5380952077141835,0.5874308451708291,0.6362797236997028,0.681721629934872,0.7306455719724027,0.780276810951306,0.8297402424183847,0.8759093106433721,0.9235121763357287,0.9719944055810089,1.0,0.9725465058878157,0.9261877275153373,0.8766429766306724,0.8270634366778641,0.7799774913238214,0.733337701746016,0.6837991103579636,0.6341660773102246,0.5846854011486579,0.538435636497968,0.49092504847807794,0.4413222073638249,0.39172801424445514,0.34439367675972543,0.30170141591376753,HB
0.7800615598799261,0.796644896081145,0.8131943880750931,0.8179846284985437,0.8103155529607338,0.8013005497767873,0.805491155500238,0.8147170582040535,0.806627321819456,0.7662734701776581,0.7208111986686154,0.6754242513312883,0.626281840214773,0.5810935956148625,0.5347893393172217,0.4857396876786386,0.4413143479352517,0.3941213480121124,0.3447645111491696,0.29539207468336515,0.2460196382175609,0.19664720175175665,0.14735624212018672,0.10171932744336476,0.05589835677219396,0.010318374673160546,0.0010981299480015139,0.040151382030036986,0.08937277464297788,0.13874521110878224,0.18811567892560954,0.23657640179606299,0.2803429988711158,0.3288132339034756,0.3781840613040891,0.42752278205310346,0.4727997499684714,0.5121573815551329,0.5608276123204627,0.6101995793656816,0.6595720158314857,0.708942015623421,0.7573002392733559,0.8010806989889032,0.8496397644765763,0.8990108660267928,0.9483821438390789,0.9955749676839762,0.9988963069433949,0.9579117397769237,0.915118085228598,0.8788486378020874,0.8538344240636417,0.8487306618244288,0.8431681091956007,0.8284559709128274,0.8065486855918973,0.7786388093978205,0.7418415560351534,0.7085542171170611,0.682709583981931,0.6716205295516227,0.6911668065887082,0.7219683111926147,0.7543563126117332,0.7795541664807704,0.7928894177604191,0.7863157781431245,0.7769365279888814,0.7684292540762441,0.777193695531516,0.7908902363702415,0.8054964401038494,0.8127285292469006,0.8164550315393588,0.8167153051551215,0.8145243455209481,0.80889176956364,0.793158671780599,0.7530024287510619,0.7058142581165434,0.6564571274459658,0.6070846909801615,0.5577141444157269,0.5093351242412434,0.46596649659291134,0.4227282037652317,0.37510448228059035,0.328803133338993,0.28361752725937206,0.23445292758840064,0.1905708534052979,0.15119820388871874,0.1113716397268496,0.10893818669427102,0.151229918186793,0.19557796472945066,0.24465142883069757,0.29402385268224907,0.34339628914805354,0.3927687256138582,0.44213211061634994,0.4897716953929817,0.5338681490219931,0.5828353420123501,0.6322075758091654,0.6815800122749696,0.7309524487407737,0.7803248852065778,0.8296863871689424,0.8771512663928256,0.9213642359211471,0.9698443522077291,0.9905333098683649,0.9518576702298023,0.9078727240283917,0.8673395064364573,0.8407492750928269,0.8267535553082488,0.8281750973949353,0.8332654959722452,0.8240265141334304,0.7977435915312363,0.7705752767806422,0.7395754014986446,0.710220196186008,0.6923098550239861,0.7069629647951647,0.7347216843463988,0.7601991771893875,0.7871392301984783,0.7980029139762546,0.7975943072565252,0.7945831359272941,0.7957013777188666,0.7929515694032032,0.794631635960553,0.7699024756961603,0.7226058343135473,0.677445711844602,0.6311194248221057,0.5819142149611343,0.5367048043211253,0.4905791591824026,0.4456843993568086,0.3991999874466542,0.353661710538719,0.30775535133448195,0.2584500806532316,0.2090794739096159,0.16119603281493122,0.1412025320424014,0.1714820975135264,0.21835226636550387,0.26770741249057173,0.3170798489563751,0.36642992824373466,0.4133954449251538,0.4580016683467274,0.5071462626858786,0.556518699151682,0.605891135617487,0.6552635720832902,0.7046360085490952,0.7540058028666878,0.8023190268588329,0.8461055726116717,0.8947036368358225,0.9440722496170673,0.9905850832025673,0.9889139049994844,0.947187604623486,0.9088485241320399,0.8784042289994003,0.8607990128313237,0.8577916923380517,0.8688642315774344,0.8594159517883071,0.8339725899764274,0.8033381387334939,0.765969866916477,0.7312068433142116,0.7039300789913459,0.7045512179981985,0.7314524230010482,0.7622466513603645,0.7882680678290297,0.8056433037786475,0.8107270767030044,0.8079899364368754,0.8038126680877324,0.8101943192455021,0.8116204880922466,0.8037941171339031,0.7632150796438013,0.7170402984400217,0.6721471026566868,0.6229591649053106,0.5754011966195652,0.531239381998432,0.4824252337440338,0.4375806604346132,0.39090590613213383,0.34226697430480013,0.29846343162243527,0.25023770696487924,0.2008683121807312,0.1515132309347894,0.10438142498747816,0.059915872174616636,0.012917339150480434,0.0,0.03624596853271628,0.0851518853838954,0.1345241006798079,0.18389653714561127,0.23320443756942444,0.2791528334259956,0.3246831035108657,0.37396295087511466,0.4233353873409197,0.47270782380672316,0.522080260272528,0.5714526967383312,0.6208251332041363,0.6701975696699414,0.7195700061357446,0.7689424426015496,0.8183148790673531,0.8676873155331581,0.9170597519989627,0.9663083193737421,1.0,0.9709668184894138,0.9278752902632939,0.8877789036486103,0.8592169698930803,0.8491011208332435,0.844778519891419,0.8398630421991813,0.8145204395343246,0.7840018329987406,0.7522392074496114,0.7216158976216194,0.6942979765321236,0.6894950638600768,0.711540299699321,0.7407960685227144,0.7662881376899691,0.7869824680799964,0.7884556562633727,0.7744878783076317,0.7576745929218014,0.7535362277724373,0.7626659137428657,HB
0.5062952468430332,0.509506189304887,0.4924695740594315,0.47773623890955863,0.4670301262048039,0.4735428068930404,0.4984106179602511,0.5153065122547423,0.5249294332057418,0.4953692661846748,0.4475879483071984,0.4014163986736624,0.35145816529018614,0.30479710861288023,0.25550259108269024,0.20436893942633028,0.15561788562188916,0.10850934931300027,0.057576965612524345,0.011616858533310626,0.0,0.036206090542390545,0.0857086448886748,0.13686936048045506,0.18660298911769535,0.2329878304526375,0.28370663770760074,0.3348826939399253,0.386059112804629,0.43723553166933293,0.4884119505340364,0.5395883693987403,0.590764788263444,0.641941207128148,0.6931176259928516,0.7442940448575551,0.7954702110804542,0.8460689860288936,0.8737159636608022,0.8383049721630041,0.7873013008158528,0.7368449388855579,0.6906382620634034,0.640493261937079,0.5916732573380535,0.5455687721762194,0.5008849378299788,0.4597149636844332,0.4265059334566096,0.3979716591872612,0.370878239181769,0.34220794269913235,0.31156388120600154,0.28026900754158457,0.2734651066575725,0.29649144974286756,0.3312892334874551,0.36792782020921755,0.40505586018708895,0.4400491912313903,0.4709154001967061,0.4881340845825691,0.4802076775598497,0.46570960654252913,0.45886847652051255,0.4697542965957814,0.49067396769154115,0.5100544225720646,0.5254585839578844,0.5000893555762219,0.46040703723396026,0.4192219425013678,0.36927513959488345,0.32277412070922684,0.2732397536271247,0.22242706667642298,0.17588712363778747,0.1264094245419597,0.07585574828882136,0.03390883853367754,0.03266711721312998,0.07715417598338281,0.1280893744714786,0.1752487860505535,0.2239424453005917,0.27508930105693497,0.3262657199216388,0.37744213878634236,0.42861384606949693,0.47859901483706213,0.5248566538664862,0.575449461199972,0.6266250612358878,0.6778014801005913,0.7289778989652956,0.7801542184065949,0.8309952135357445,0.8747147591429433,0.9107161943312673,0.9067380152853429,0.8586202747208745,0.8074610185393766,0.7580075668389937,0.711450513117407,0.6607517749758444,0.6133818415785929,0.5663754892563745,0.5208334277999839,0.4771322688414329,0.44060902834828874,0.41438563108247994,0.39127132689246047,0.3643543421338348,0.33195349753977066,0.3125115054697425,0.3226585058557834,0.3528330533391508,0.3865064626346756,0.4189458977957802,0.45272072566636645,0.4845126602027453,0.5070808077380563,0.5024432122513148,0.48587809914690083,0.4733477277723114,0.48037983451460853,0.5024996482283285,0.5191988582277026,0.538644664926181,0.5196806158570967,0.4750956616646661,0.42725309184664517,0.37983603390165843,0.3310562153669758,0.28408309507394447,0.23316177720164766,0.18492638859013422,0.1373480631805094,0.08673383963374093,0.04817425003654063,0.06300081485240716,0.10741880980145502,0.15742426742489046,0.208596736299971,0.25974636578882015,0.30861351216057875,0.35562539083773614,0.4066032398848126,0.4577796587495172,0.5089560776142216,0.5600166111283281,0.6075296226636727,0.6558364378283347,0.7069625811990633,0.7581390000637663,0.8093154189284705,0.8604918349883913,0.9115043658787426,0.9586773651449779,0.9999999999999999,0.9826502785351944,0.9324089542093138,0.8838911668329411,0.8365714981527811,0.7855756837509414,0.7369993315584528,0.6897356366961372,0.6396375744525523,0.5935086974143166,0.5462217182603045,0.5026014987622364,0.4623105303404399,0.4319361913872023,0.40867169168077655,0.3819987545207759,0.35017386647749393,0.32325703498696234,0.3129289020047772,0.33490127963861516,0.367412149387249,0.40147570749681216,0.43542535588879294,0.46948124151224524,0.49647098458689565,0.5023117895833297,0.48614135336875497,0.47297879748811444,0.461847075592391,0.46963393410440324,0.49366598841128806,0.5100853340673795,0.5252771725323132,0.5033550942642872,0.45852080136777207,0.4093847596806949,0.3623694688121365,0.3135229492191399,0.26237401012751127,0.21119759126280668,0.16002399941746825,0.10982011661287039,0.06363694667416608,0.01646358109197299,0.005558858364565711,0.04766368941523014,0.09476540052422688,0.14344762270113331,0.19459415352025533,0.24577057238495836,0.2969063939294293,0.3453610047259209,0.39273315697039857,0.44377707596980154,0.49495349483450435,0.5461299136992087,0.5972698776269919,0.6458482490960639,0.6931054363696084,0.7441364172840504,0.795312836148755,0.8464892550134578,0.8976650641169409,0.9473696181411063,0.9602570402399716,0.917080203841668,0.8659878186478228,0.816095043264908,0.7697897846361837,0.7192860390921411,0.6746688307918646,0.6352294672970139,0.5860017328239658,0.5393397335885589,0.4907156923817656,0.4478530696247719,0.4155316156743233,0.391962399204821,0.36454008196609633,0.33339389759913696,0.3015200242853623,0.2757994208332962,0.27687237625431727,0.30509801620628085,0.33942796935745945,0.3745389070675882,0.41261533471795186,0.45117951963069525,0.48248262760292115,0.4997552353150879,0.49047721267446753,0.47717368005624083,0.46538323967284223,0.46271042678606233,0.4850259249101937,0.5020371833933049,HB
