0,1,2,3,4,5,6,7,8,9,10,11,12,13,14,15,16,17,18,19,20,21,22,23,24,25,26,27,28,29,30,31,32,33,34,35,36,37,38,39,40,41,42,43,44,45,46,47,48,49,50,51,52,53,54,55,56,57,58,59,60,61,62,63,64,65,66,67,68,69,70,71,72,73,74,75,76,77,78,79,80,81,82,83,84,85,86,87,88,89,90,91,92,93,94,95,96,97,98,99,100,101,102,103,104,105,106,107,108,109,110,111,112,113,114,115,116,117,118,119,120,121,122,123,124,125,126,127,128,129,130,131,132,133,134,135,136,137,138,139,140,141,142,143,144,145,146,147,148,149,150,151,152,153,154,155,156,157,158,159,160,161,162,163,164,165,166,167,168,169,170,171,172,173,174,175,176,177,178,179,180,181,182,183,184,185,186,187,188,189,190,191,192,193,194,195,196,197,198,199,200,201,202,203,204,205,206,207,208,209,210,211,212,213,214,215,216,217,218,219,220,221,222,223,224,225,226,227,228,229,230,231,232,233,234,235,236,237,238,239,240,241,242,243,244,245,246,247,248,249,250,251,252,253,254,Target
0.7522452912059625,0.7765735927124087,0.8073582844471814,0.8350436935049281,0.8722815074366987,0.8887290402179595,0.8969058365358693,0.8998516869338438,0.9023815210501775,0.8887026671653471,0.8586508529068713,0.829920265911235,0.8084035878718363,0.7953820188900909,0.7475218934815999,0.6907108225739251,0.6465270802112273,0.6379293389056007,0.640739081119539,0.6516712228018728,0.6491969393808101,0.6857766149627702,0.7147872565409659,0.7226177831951202,0.7311981500946145,0.7714956476246966,0.8064899720886625,0.8300362251680338,0.8553268935056093,0.8834841204007717,0.8956208435789768,0.9082942048575471,0.9413133051898759,0.932041656246996,0.8781063274284964,0.8210285103056179,0.763944437813942,0.7068603653222658,0.6497762928305899,0.592842396748751,0.5410196854410021,0.48769274757752723,0.4306587732789442,0.3735747007872683,0.31649062829559216,0.2594127471731116,0.20413973876616986,0.15381401047430587,0.09737324782835732,0.04108459795966424,0.0020244156787161405,0.019287779391509163,0.06847903730135152,0.12140715097580146,0.17797303563093514,0.22850361584698908,0.28338234296818454,0.3390733212424415,0.38921712915420303,0.4454095240776248,0.501935801711016,0.5474454364058581,0.5899434252113356,0.645929595477212,0.6977336544531012,0.7492432662094599,0.7995027867792883,0.8535773405664491,0.8957110861582283,0.9216105876372309,0.9296203909775038,0.9223053879064445,0.9111471291748272,0.8960172177080223,0.8766529700725776,0.8490568786952162,0.8206458622132302,0.7979760394049586,0.8038116480224851,0.8343848240073088,0.8583103602074988,0.8789153009798469,0.8885522076057064,0.896120054455378,0.9027323692160569,0.8896527371954581,0.8626736570674776,0.833456060675992,0.828111101526231,0.8579921377399096,0.8894831890349237,0.9038140322323438,0.9116016134697473,0.9383657675233843,0.9267105294122477,0.8714632989018007,0.815806462791753,0.765675451789076,0.7094262025673341,0.652343087730469,0.5952711890151465,0.5405549024008709,0.48990118115172754,0.4332254641985689,0.37614149568714694,0.3190574231954715,0.2621027283878947,0.21013320037533023,0.15696766572043686,0.09994218188132842,0.04410643291084948,0.0005891350505787818,0.0,0.04388881018200652,0.09898906997255263,0.14912669776327203,0.20526584924800362,0.2594175814311601,0.3105124146591075,0.36732039772136615,0.4244044702130416,0.4814883987320582,0.5380931630739916,0.5885844010616637,0.6435175759306113,0.6981821132585975,0.7484660975718689,0.7982499365666664,0.8451880798763505,0.8854883651112984,0.91017020053538,0.9130781535959647,0.9047359058812336,0.8951777950416551,0.8821662712116367,0.8595380839797635,0.8320212490846663,0.8074939076386816,0.7921147027210074,0.8088182542000237,0.8375306374275382,0.8653801144053943,0.8824455257367083,0.8871610802307357,0.8969683784132387,0.900656118803864,0.8787452681083288,0.8498786395964837,0.8486544680982384,0.8727830745811636,0.9031034582322346,0.9206138718632542,0.9325829936327241,0.9601316980426116,0.9485981440381182,0.8942314953804882,0.837248010895375,0.7847740707793898,0.7321240617553035,0.6751188734617901,0.618035032926066,0.5614882114558419,0.5110387339103946,0.4559931438005247,0.3989172814184683,0.3418332089267928,0.28477927665473723,0.23090678783945906,0.17957132827181577,0.1227330156109433,0.06955798634924015,0.04780011237349435,0.08236626660785484,0.13193000142724576,0.18818748075543557,0.24470112893494578,0.29510084979670126,0.350210940994639,0.4046769618374255,0.4555023071939073,0.5122512926704388,0.5676084781961552,0.6092593546760963,0.6493633634945857,0.6982082771653901,0.7510904259729714,0.8008611775041785,0.848447118732155,0.8948553929969512,0.9285905615991465,0.9379949827198608,0.940048096242146,0.9389598049464167,0.9292109597376141,0.9130971500609268,0.8844652465417477,0.8526118998871819,0.8273264892813601,0.8090274340549626,0.8298934415454797,0.861020265009347,0.8863217157244532,0.9091437960655508,0.9220677206955752,0.9327594020161685,0.9412672544744747,0.9289347855689141,0.8966634497326118,0.8627864832960106,0.8589588644102197,0.8861763718310189,0.9206421766651016,0.9476509033384957,0.9590383318047595,0.9766496347104987,1.0,0.9649593319498087,0.9133090280998855,0.8564734854157401,0.803886477128632,0.751346355402499,0.6943517591904615,0.6372676866987852,0.5801839181493911,0.5236783372627216,0.4733045942762133,0.4181435049520128,0.36106609465546313,0.30398202216378667,0.24689835759464696,0.19045234643978148,0.14018799781618563,0.08511665367273968,0.045525059240052124,0.0666878010534917,0.12109524813247463,0.17814978526595115,0.23222498106556344,0.2833867969388927,0.3402020884712923,0.39577390051536376,0.44593815374249046,0.5020182015611656,0.553376556129801,0.6071721274358974,0.660523646191739,0.7122754589166194,0.7662935300223792,0.816206666571867,0.8636796168113974,0.9063222859108562,0.9353148693241966,0.9344045390095521,0.9286723619280144,0.9182517999172339,HB
0.7638335038697539,0.8039977186861433,0.7674984196357322,0.7126660299221985,0.7251150089181548,0.6726995198493828,0.5834471491916196,0.5102608956305099,0.5280614130980972,0.577840157796027,0.5219143307386895,0.4382196299850616,0.3462930153431927,0.24864471952772949,0.17256327562481033,0.07896635042131894,0.020314729632639583,0.0004953440998702874,0.0048185386085348725,0.06675260093855329,0.17561406466965046,0.2578164437433186,0.3463632769229834,0.42592385085787754,0.44827052321158245,0.501043798367494,0.5958038056393322,0.6890329734367437,0.7579003549841623,0.8038854233479942,0.8208386636568585,0.8222816650365932,0.8180468085841328,0.7742069879041713,0.7120780046123016,0.6267350767939774,0.617582709674811,0.6063561443860586,0.5379139543926366,0.42014295016985503,0.30098635848754185,0.1818302168350563,0.0659774414634331,0.008197181842287904,0.00010073057503401373,0.0,0.0009480912499570948,0.041586685571786575,0.05903510221895569,0.022450325269018023,0.0417752649667289,0.1475797804212684,0.2218248763031374,0.29190928908537384,0.2844800119399409,0.3178557427495452,0.3253074857585476,0.3408291655493638,0.4471499207693723,0.5610911174157796,0.5917290366082604,0.5886141517358228,0.6852870731887801,0.718969373886333,0.7170707303370563,0.7867576163080825,0.859374605646611,0.9179095971626978,0.9573130910724634,0.9451995838983089,0.971905994326054,0.9927030342854097,0.9203565465241805,0.8540453379650472,0.8869023023635032,0.9409592347146312,0.9840999534227359,1.0,0.9709255857309769,0.9265708962663091,0.9222757315682921,0.9393621017447513,0.8993805766821641,0.8228293571237923,0.7685430238397295,0.7094337825021446,0.648529203569681,0.6576386156539717,0.7032382342794703,0.7201134630460748,0.7493949990486239,0.759406278638564,0.7403940559415529,0.7892868131563038,0.8103723454518494,0.7821407796848563,0.8106148582410642,0.8541118549904247,0.8200287081031705,0.7789784123781702,0.7913141328941808,0.7782097610982985,0.8527497164990532,0.9025322722967175,0.8692366895983428,0.7913294687548573,0.751139334818574,0.7380020652570778,0.6683189312845039,0.6341018086068262,0.5626139525220877,0.5105790658490523,0.5486712049027043,0.6182838088778286,0.6439804052668245,0.722924900639109,0.794814924428553,0.8245933434326513,0.8593545240215894,0.8950667660039064,0.8294558982526183,0.7748040442200921,0.7361490716930703,0.6490763698220521,0.5379414717918749,0.4817485433446054,0.5328138432650062,0.6446360261087385,0.7636491672483068,0.8562026133099252,0.8462014231719994,0.8932361335854369,0.9509413124900385,0.9192087955709587,0.9196692638448738,0.9102998824430548,0.9364951668377728,0.9382215038920938,0.917299888385168,0.9225833370820125,0.9086488733936466,0.9457531998097224,0.9608506911970265,0.940494883791481,0.9250659579723557,0.8579543308859057,0.8078033708992454,0.7641334583289403,0.6779567886034021,0.6454959455375757,0.6819377518309668,0.6511871523380899,0.6381503738389451,0.6548158173069814,0.6978078293457175,0.7370135456267581,0.7666837129016155,0.8199472584504868,0.7875938994653753,0.7518914302673076,0.7676794375201039,0.742313935815262,0.7708321485603795,0.8019188986184336,0.7632104592574072,0.74400382398861,0.7861171930953814,0.7680211637149137,0.7224335630337722,0.6732095765378725,0.6331262497938708,0.5798680049442773,0.522802089652985,0.5136943946661567,0.5817060878600078,0.6353055495281135,0.6521927384210224,0.7249992936599439,0.7771235297437133,0.8329763835406068,0.8603810453782845,0.7959724218389557,0.7432125657521205,0.7124681704048665,0.6374584617346084,0.6231987569654454,0.7052255277826278,0.6790168069661888,0.6934546473153738,0.7554464525259732,0.827917348107305,0.9010519318294028,0.9386450266351822,0.9400940746134321,0.9445260404521889,0.9577552959370204,0.9124953748194748,0.8835600398184935,0.9294564601171107,0.9589590906091905,0.9727916153185836,0.9485241616927622,0.9355510531236613,0.8912951311551289,0.8458275742474921,0.8073878579220475,0.7767457414821708,0.7111634392676205,0.649352726803528,0.6674072575654284,0.7226068447031597,0.7404061059036051,0.7667578559623207,0.774427525074322,0.7984095351136746,0.7707497150756764,0.7219899773684855,0.7147448909825469,0.7738517390784097,0.7812622058631744,0.7722345817993288,0.7718203930406249,0.7509628293937096,0.7302799951943904,0.6840580141544379,0.6623898483505641,0.6103860004538815,0.5602904579524006,0.5087341217532932,0.5274206569934119,0.5606594288254323,0.6320875367308867,0.694117656916653,0.7589039907453383,0.8297014521556472,0.8702101286782149,0.842793674657889,0.7631523329081249,0.7382813458070414,0.6910437729853776,0.5910931102879031,0.6044417231227763,0.6918733176269889,0.8003951140583432,0.8479309765733278,0.8405486922521712,0.8739224813836151,0.9279484833053138,0.9257779064942415,0.912019508568525,0.9314843836287467,0.9140819539811682,0.9579910730323498,0.9520453399516873,0.9239935729617414,HB
0.09661294683799893,0.04889320246841844,0.005206179661401689,0.0,0.047618120865226654,0.0993375769691699,0.14913243652334496,0.2049170374346837,0.2608534396123797,0.31609231348846445,0.36410792805819325,0.4181505629824299,0.4740825959223537,0.5300177467673203,0.5847606533594091,0.6325908189137431,0.6873044562653258,0.7409582400262648,0.7891360448650212,0.8358098399059014,0.8390703454380187,0.8243035702926854,0.8073778598124935,0.7919515909138416,0.7682006352155263,0.739481512100601,0.7007171595143559,0.6454820622206002,0.5899285127686674,0.551741745285253,0.5460060061579614,0.5469133544750419,0.5618789941070595,0.555917259751891,0.5710819717029202,0.6125146781805276,0.6364619004762687,0.6424302709807209,0.6488593400538049,0.678167737799311,0.710867248282817,0.7312666377554143,0.7578299647037435,0.7836067218516235,0.8059278096103392,0.8262474047226979,0.8409689510691675,0.8439063499722327,0.8405117859679953,0.8406646164292443,0.8470556041098164,0.8456126454254814,0.8290953644865177,0.8053189802177542,0.802324072598419,0.8220771945709725,0.8563744543631419,0.891807635003007,0.9113217814355755,0.9266426702746834,0.9513308769035208,0.9207320389811938,0.8651461103581234,0.8092091855244742,0.7532733361636129,0.6983345962718427,0.6504929639101645,0.5959777909943943,0.540043627036804,0.48410929151966864,0.429754932061868,0.3818246240392208,0.32681429025968967,0.27087815936080617,0.21530430375300702,0.16660304203250764,0.11540598758215126,0.08768668579800243,0.11226251612129123,0.1616100134849051,0.2169161043321507,0.2653067792468572,0.3187796805895814,0.3747074946916312,0.4300290598312556,0.47816666573111954,0.5320060020465102,0.587936533305644,0.6438672690308332,0.6976967116362286,0.7458614524003065,0.8011654020695466,0.8571017463585212,0.9120637442751712,0.9345057138145666,0.91240111911838,0.8931815109667222,0.8706269534280539,0.8462647352969835,0.8198794882001458,0.7895797998793544,0.7578304157233559,0.7299763869838761,0.7254264249265744,0.7376349543607362,0.764433662692699,0.7879624272467504,0.8066710085320973,0.8162406868863604,0.8194014871337388,0.8201871170646607,0.8281366554087942,0.8312306286125101,0.8364854837846446,0.8204736507435834,0.7983156455509205,0.7733751866330821,0.774585897893039,0.8005762238578366,0.8344068930017133,0.8661191212215672,0.8829582327189464,0.8999442151593208,0.9196384163327441,0.8787886967802049,0.8229863878538314,0.7712946125495915,0.7214230791995028,0.6656542090690653,0.609717286544187,0.5538774210720055,0.5032492650356363,0.4523508815952296,0.39648866251004666,0.34055172805651635,0.28461479360298736,0.22867785914945704,0.17274110170173052,0.11727863888625956,0.0727990583896524,0.05873342888874955,0.09546817332562785,0.1440665975875003,0.19652670337827216,0.2524346660320357,0.3065502909713881,0.3545668549208264,0.40973088012725534,0.46566730489837116,0.5215919128698004,0.5749148321532179,0.6233869713289192,0.6788960462950545,0.7346191672250829,0.7840618635701034,0.8351879497189597,0.8770859281576268,0.8721130801085483,0.8554928825841172,0.8353243339271982,0.8128104925454099,0.7890913582913991,0.7622539268240863,0.7385353125092625,0.7192197474468666,0.7213978420809054,0.7437701677166458,0.7715878777979285,0.7993837141499315,0.820626886048495,0.8344980124538043,0.8403518476998412,0.8404571411649965,0.84045728112096,0.8408705564421189,0.8436582618184197,0.8249876585382286,0.801166519810793,0.7799317118451018,0.7876660038953102,0.8150529769383875,0.8495632015698994,0.8800863859118598,0.8982902890352685,0.917749044048397,0.9290971350477276,0.8847572751209608,0.8362378400075873,0.7807455533762905,0.7248087667251223,0.6689000566724127,0.6165917898206376,0.5672867919256551,0.5115801076746153,0.45564320823745186,0.39972020316427936,0.34674679921484264,0.2979821590333559,0.24241452225128046,0.1865652833183028,0.13583353626706896,0.09347704723412054,0.1005766750230791,0.14516815910496061,0.19361882461030178,0.2359254772959335,0.2854900636409913,0.3367706289655027,0.3926522798373485,0.4485892142908777,0.5045076945085457,0.5572467769589392,0.6061936679346996,0.6618178860396257,0.7177260947274201,0.7699922097579345,0.8193225604809601,0.8719908122140888,0.9162988327313014,0.9223056443095806,0.9061163441558965,0.8901208191021212,0.8696819064333617,0.8441887377695548,0.8189443937554607,0.795703108683515,0.7886377297092514,0.8007069468960942,0.8220071816677522,0.8439921184435489,0.8682093285222222,0.8846854218196764,0.8928447583805207,0.8930527212239475,0.8932187126843926,0.8992674547676173,0.90501533220354,0.9028438357732912,0.8816743396963761,0.8564246387903008,0.8439745086983353,0.8624401011218027,0.8979811678476993,0.9315296342933798,0.9572529362504946,0.9749075055617212,1.0,0.9913890935152226,0.9389971354961991,0.8911806718679279,0.8365565828460929,0.7806219468988883,0.7246850124453567,0.6687562116178382,0.6174842610159178,HB
0.7826494094516878,0.8122088419433959,0.8432576954152653,0.8457045918353057,0.846004132052605,0.8556405909373295,0.7848098015049754,0.6951601203273343,0.6003575310707854,0.5123538123404119,0.43119477991055266,0.34696687780989777,0.2491842196984031,0.18038730590204466,0.08749705154379495,0.028175468861878272,0.0,0.0003552014867711506,0.03855471721207149,0.14163051634122237,0.22513418670318597,0.305448086617079,0.3859150351142624,0.42973155744660474,0.4951476625708855,0.5933430384088636,0.6811860640245113,0.7886646794170158,0.8985527153549455,0.9534690336641356,0.8925932835304229,0.7984670719803093,0.7548505526813649,0.8046713029006982,0.8777259496284806,0.9325225509086135,0.9683836666177132,0.9561663107128497,0.9016139548100499,0.852788390763572,0.812673259948256,0.7643122407633554,0.7160200323692179,0.6655101141193125,0.6223871835363033,0.6282335170256266,0.6747075323383003,0.7196200292553749,0.7851306745217315,0.8390887035056549,0.8335795551235572,0.7707577225730597,0.7528767906123868,0.7812311925762723,0.8103697681726043,0.8461177641147879,0.8783046614110654,0.9032082886846169,0.9025284716775834,0.8534480839672529,0.8163658610330762,0.8331522332293417,0.7898615097545747,0.6888048712478305,0.6017674481480997,0.4946776199152616,0.4099378195567933,0.36381877500429294,0.41835802627849805,0.502909176434235,0.6057577723044165,0.6961019721258808,0.7716788951167768,0.8342075681899823,0.8648754911204835,0.9195473844867941,0.9842097002867094,1.0,0.9558947911347149,0.9615774123550134,0.9476207627412974,0.9409780554032308,0.8945212191289098,0.8626739473282816,0.8415085002826874,0.7766336693543678,0.7375723540559438,0.6930785081563275,0.7119775423147097,0.7811461852390593,0.8183694665946541,0.8724041516747905,0.907246498713719,0.9108387641809514,0.9019601285394385,0.8558556705684888,0.8117443116148104,0.7886130397216702,0.8129325983069169,0.8441630327027809,0.8528194151368735,0.7774046472513776,0.6756874995444253,0.5914040469616255,0.5567078941097536,0.6018108331306333,0.6766871462602575,0.7379615293180963,0.8031846134596234,0.7738183073225278,0.722391012675657,0.7581069925829098,0.8253745455338111,0.874320715804962,0.8782808268231426,0.878280498970744,0.8735177267706291,0.8398855917726937,0.8012318624615622,0.7532820946644234,0.69460820700741,0.6368191880453997,0.6181194278555822,0.6403571206090861,0.6998120360783728,0.768020177726032,0.8115323650033179,0.8401757596486883,0.8685050952627877,0.8780020479863593,0.8591299280349949,0.8161200481481456,0.7439402892605171,0.6505277397747289,0.5630201709107183,0.4641084659092476,0.3710371860316064,0.2851250681768107,0.2746760346874053,0.34558724118894446,0.4504002035689396,0.5491335996731674,0.6445161005912672,0.7517342974604047,0.8239976713906296,0.818111742765816,0.8345344645614103,0.8813857785804391,0.9335777410229937,0.9072069734565922,0.8797243118157718,0.9124528171893385,0.9361878524440073,0.8685199207892165,0.8330333989182819,0.7937769867474325,0.7388556920684994,0.6881399656649041,0.6544810021715834,0.660930211791495,0.6989291253159386,0.7561757142427927,0.8158955451648175,0.8477005112355505,0.8892240891558103,0.9041817111945143,0.8764801093857573,0.8329230726266648,0.7856282135084696,0.7582204853994359,0.7701196862020794,0.7885635016085875,0.8011449230807601,0.733228417277294,0.6305879564455585,0.5186226769851094,0.4381341729613455,0.40115020328365425,0.4564856601631755,0.5498434318276137,0.641879309165656,0.7222098318621653,0.7679957436967166,0.7629408360075134,0.7835546475754587,0.8102895565108561,0.8132263597973406,0.8310551617893882,0.896576467710851,0.9398836665792132,0.9285595543030274,0.8820120171176633,0.8310934845801157,0.7626568863104799,0.7021435992584548,0.6536807962916376,0.6818421848799119,0.7142099494091045,0.7223316649376921,0.7768107135481159,0.818757136827994,0.8439214210151817,0.8143398306044656,0.7336136044652326,0.6427113057695513,0.5422652660809035,0.42921418275115464,0.3303515734190512,0.2664377473544093,0.2799378712207625,0.3605719630488844,0.46508241010241314,0.5544997020123272,0.6667824795048647,0.7758133052774996,0.8483748620283187,0.8232054332009335,0.7774133751588339,0.7541329031444546,0.7780312313853992,0.7805489697929904,0.7769719954789789,0.7507273475919662,0.7379287202648515,0.7139943107207092,0.665376834016107,0.6003766194391877,0.534668791874612,0.49992982524256213,0.5210201411558355,0.5591742790792482,0.6220908301681396,0.6832208984670656,0.7323592576156228,0.7642242361082685,0.8008985607756731,0.8013586653314215,0.770992082712711,0.6948354975406756,0.6046794742994059,0.5189330451677936,0.4582795001794153,0.47560493029835893,0.5582212595898834,0.6573638739317511,0.7614308689990557,0.8293734572738547,0.7859882904357454,0.7237047671104966,0.7524443621096699,0.8346815217949448,0.8761676413466866,0.8792770299834345,0.9032496911900143,0.9108461993885761,HB
0.3881962347727077,0.39798133034417305,0.46574775583570993,0.547202638969349,0.5865953385368972,0.6595908449606105,0.7263617800028026,0.801691971007763,0.8713245814770971,0.8646693984311371,0.7655250950729808,0.667254346640834,0.5747748887631152,0.4895287460349369,0.4229566071802058,0.4291581843589505,0.5255790407814755,0.5746249627288931,0.4966640705787162,0.41602189861082994,0.329742058315329,0.23596466695000817,0.16413523731762147,0.07504569812587736,0.01905156819977094,0.0,0.004220249395180176,0.06359925019574586,0.16657194807777298,0.24452114173880446,0.32869768363956986,0.40357751637306194,0.4223555431581101,0.47598847079547024,0.5674620808036366,0.6543216268740544,0.7334834103285095,0.8156518766825682,0.8763415592115935,0.8861072390252636,0.8749552649932575,0.8524525636665174,0.8124491526828521,0.7472193394698428,0.6975240722318672,0.6283739781232578,0.578189922434122,0.5714179431720332,0.5810588786691966,0.5966540679470222,0.6340145906997012,0.6748092931917782,0.7393519504439343,0.7954989948753761,0.8179530044826517,0.785249797999156,0.7474692194214425,0.7071465114730371,0.647561434143908,0.602655736973924,0.611405466521294,0.6497827663953002,0.711916699912412,0.7525910767824318,0.8254102052455359,0.8728901824537454,0.8217657591345118,0.7158828357336411,0.6281283463901408,0.5359874391251056,0.4503808231263102,0.36852729663449235,0.3579529971831352,0.42305748023843215,0.533236904813359,0.6368489471431182,0.6769232822156637,0.7401579720220015,0.823251529970376,0.9007654701928924,0.96031068932112,0.9736163413927565,0.9505502498518634,0.9407724139808318,0.8954619893687132,0.8569981227238328,0.8093606479761517,0.7412036496940457,0.6965770554819324,0.6687095266829308,0.6689489390946237,0.7050818314425138,0.768275221523095,0.8120659707411173,0.85757483091799,0.8847780067635176,0.881295532590018,0.8366664365439389,0.7814896917547314,0.741207488812206,0.7134460644601548,0.6981604830975776,0.7333646853544513,0.7767186704312516,0.8347816160640509,0.9086141381600639,0.945096886134575,0.8742984320969169,0.7621280505574264,0.6647998682898448,0.5720424448480896,0.495706196991307,0.4782149489074943,0.5316363042039258,0.6210510088007926,0.6660844170298521,0.715758863100695,0.8042998232836611,0.8905532172145927,0.9581925084376115,0.964916974617311,1.0,0.9813873210633668,0.9492678124788885,0.9175440262043617,0.8832968016294593,0.8181584003346769,0.7642548798147626,0.7295543257721278,0.6973529223931196,0.6961940012812713,0.702236458274859,0.7071957067905386,0.7593367115640737,0.7919244793356652,0.8170838390291468,0.8177947127976823,0.7609496992008209,0.7063905855044075,0.6620348430801188,0.6336942786101636,0.6381066107381184,0.6770036482017758,0.7542923528154546,0.8017329646298448,0.8490147583570877,0.8730210267932179,0.8113552008319695,0.7018458849198188,0.6036554548220439,0.5080103056894743,0.42154928308891737,0.388834677504577,0.44832897130638916,0.5334272191426539,0.6101912747605063,0.6124857926429144,0.6580620059723712,0.7167034357791877,0.800420461045996,0.8718342783675324,0.8843491026579038,0.8496421593577939,0.8234499387970153,0.807238586971863,0.7452455309801591,0.7066288074230354,0.6845373680337703,0.6290646298112987,0.5760074536905533,0.5977078705787875,0.6125005162668797,0.6333649909719536,0.6884828596811721,0.7085507472872132,0.748770672107411,0.8071975603066575,0.776371495818414,0.7210420356488827,0.6936551510453723,0.6468276029150397,0.6239403423808048,0.6028229291794691,0.6388345988779802,0.701590616214034,0.7678052678347926,0.8192334263723682,0.841679199148837,0.7938366143130002,0.6870628364925269,0.5929384483784474,0.49429654530431844,0.4241117467126019,0.43703030073674753,0.5164187773576145,0.5968674403007714,0.589834096120371,0.5757692643116927,0.6299124735859802,0.7047996027310734,0.7673320773601562,0.8138119686691656,0.7967425863311197,0.7911526312787087,0.7800906434501949,0.7361548919284591,0.716217247959408,0.6857450610325895,0.6229233423017693,0.5767575259450037,0.6160938145954047,0.663277638981028,0.6919189693066254,0.7221267127990378,0.756325091127863,0.7826110432417588,0.7649509968094135,0.7511119803012498,0.6908365957174238,0.6387987589254793,0.6053766006091523,0.6067307226454357,0.6589039061529753,0.7199252059836496,0.7791112650787166,0.839846525379647,0.8766325554484897,0.8168005573767294,0.716338680758386,0.6256661566363713,0.522679746190601,0.44011321099790823,0.41353674223167847,0.4687218447311654,0.5541143470993877,0.5992050649898557,0.5425168544675891,0.5558500131793247,0.6275739345183462,0.7092064574354717,0.804940117408016,0.8454479225795204,0.8291650918428619,0.8225670532876013,0.8010613606642956,0.7479083989124202,0.7239652941654704,0.6801734667810377,0.6237095093206237,0.5756405706270442,0.5417704497859459,0.5217206919253181,0.5737550859978073,0.6256483221079652,0.6678278702675389,HB
0.7213895301542204,0.7123409290941751,0.7103211615766307,0.7338549972232578,0.7627703704151862,0.7275772685376714,0.6567644993330104,0.5784832900753303,0.47645231571718494,0.3868400715771525,0.2965340014492739,0.206343554875418,0.11955302419770497,0.052162347369534956,0.007839389491007154,0.0,0.0073407074672706685,0.07208287079203846,0.16844352584387856,0.2157360919443141,0.2930575291749822,0.39253823693650425,0.4322092385169469,0.45286519602843,0.5263828886934645,0.6033600970388378,0.6648140362874724,0.6465482029049561,0.66550371795062,0.7340346765833896,0.7971245488376244,0.840874655879996,0.8570780244238891,0.8328678577901751,0.7996086866676757,0.7749368648157331,0.7741808400465633,0.7667443278522628,0.7227381472441836,0.6875328689240305,0.6622193271722194,0.6462005246012659,0.6855299832142672,0.7443737165143673,0.7866588513099178,0.7795948975387699,0.8047476692405544,0.8070126570528835,0.828528392034845,0.8387177722329637,0.8473583992986464,0.8907152593514249,0.893941217855625,0.8716029798796301,0.8709751862257669,0.8709802304505665,0.8767980066074914,0.9018815104965059,0.9138661610223622,0.935193501126232,0.9299708501723272,0.8637856145854279,0.7828734108120763,0.6781012433044351,0.5720811987976999,0.4678921567880918,0.3910770014186813,0.3575167505975161,0.3952363205050533,0.48299099776752463,0.5624205072865838,0.6464640000147233,0.6973783294952831,0.723980445956963,0.7857512749464597,0.8564876667036039,0.92723277245282,0.9903157970578294,1.0,0.9926547932914707,0.965930123328989,0.9262422028689006,0.9036198766180421,0.8946232335454729,0.8505905937019103,0.8332733441869324,0.8081514955320914,0.8074954816887194,0.8323651651749255,0.8675913831503959,0.9067262864658305,0.9335559768036878,0.9342136972608346,0.9095529613667992,0.9001345229836035,0.8460915161893867,0.7665576837959813,0.685524377826078,0.5813974350189088,0.49823796959581745,0.4008783799231086,0.2975958398012004,0.217970895168226,0.12162433395495142,0.0511480053461435,0.04899546417619405,0.1202591194115259,0.22422317970386096,0.30724207275186277,0.40471168973420024,0.50764072163257,0.5872570850496386,0.6755507627559245,0.752817869456047,0.7748050415368732,0.8029641691125233,0.8535662466643776,0.8805559278788317,0.9027683064412013,0.8994288499933827,0.85809235464792,0.8126544202728585,0.7835809450659958,0.7393882741917848,0.6803015431333534,0.6375052885280175,0.5885348325912219,0.551562562819587,0.580440109543054,0.6273688425678925,0.6892726707204115,0.7402945781536232,0.784400344171396,0.8373923842844055,0.8877039158653011,0.8953285082778351,0.8511700426644895,0.8151774698470238,0.7815326503750564,0.7741827300070048,0.7629149229269157,0.7510290373579585,0.7741739117577469,0.7979754638600145,0.793607219799144,0.772923699380331,0.7467968650121621,0.7419332398338847,0.7424228418059133,0.7630956005694678,0.7736883990136647,0.7537267861410504,0.7629270645461883,0.7407580256981356,0.6978925280227868,0.6266568922573112,0.5463355839179833,0.4550931024185463,0.35397774106096946,0.27500915331927533,0.20883606309657576,0.22668336099702913,0.3049234433764312,0.38794191386679433,0.48811569133032506,0.5606642959958892,0.621938141892949,0.694881220921487,0.6872973232557245,0.717703634683418,0.7744032950061701,0.8300327100694451,0.825703980966928,0.8068062131930986,0.8064513313422088,0.8025126884215794,0.7708666561807744,0.7357208900456778,0.7074121214538849,0.6613892503243504,0.5901621552958618,0.5938786989469333,0.6378511160842928,0.6662170103748695,0.7098525653470356,0.7550651373927799,0.8171435579435959,0.8617065998554638,0.9003212814411716,0.8815437297122157,0.8564031005763786,0.8311670968988594,0.8084892989350356,0.8323615075047606,0.8384722053524083,0.8082208355325635,0.7080493167331596,0.6165891169182709,0.5279642047742152,0.4323032196806631,0.3491001717047064,0.292690446377895,0.3078836632578925,0.3863449505563388,0.47570023763049374,0.5778063346926965,0.6574284344172803,0.7590221417514789,0.8182786564504339,0.7881457024892438,0.7763466430260904,0.8229353855443531,0.888983841552764,0.8929885042935499,0.8665095436341881,0.8439439463951315,0.8684971674737536,0.8667868031427757,0.8261944010239723,0.7868777518050196,0.7427317129459023,0.6993165386078743,0.6810244699067081,0.6984630595113188,0.6954938220841367,0.745564992322282,0.7850548520034826,0.8202902258413474,0.8463962055435248,0.8802900998682119,0.9038537963028999,0.9439665387933989,0.9661579802153923,0.9408881376765645,0.9116861300348793,0.8727790007916596,0.8455441665290229,0.8294883429383884,0.7691247342891359,0.689933097011135,0.5921934191764668,0.5066280170934814,0.42683708735709924,0.39303272565270575,0.4538479377478071,0.5333321500264487,0.6284436539734415,0.7004620569681776,0.7782982846859223,0.8086510892685981,0.8454542348951035,0.8979710108419656,0.9117243753126401,0.8881129014499374,0.853945859629416,HB
0.9277045976098128,0.9182174822829785,0.9045086866738565,0.9026775047786646,0.8934678512566869,0.8705902146117783,0.847574223356282,0.8260533275633535,0.7959782023054045,0.774014303839601,0.7321914564135208,0.6680291186045288,0.6033647589933431,0.5499206223418283,0.5372633639988242,0.5368025428831018,0.5418258477339317,0.5616789592686924,0.5475594139334219,0.5685181472798855,0.6292540599830854,0.6586884822652135,0.664240984954225,0.6723398997667258,0.6962424396566689,0.7572169317392825,0.7914429312297371,0.8283161153775824,0.8620642741851763,0.8849496022295689,0.8814299818539582,0.8727362426603797,0.8821434916158919,0.8974179838638172,0.9103412494820697,0.9179898688959913,0.9052198552176234,0.8835214416326289,0.8584516382204035,0.8235862717633922,0.8046555125412527,0.7891014513127035,0.8042711545921899,0.8562881343986077,0.9049193749474089,0.9377747241662993,0.9606911528554407,0.9827513441838638,0.9416429706951723,0.8880109921219901,0.8248269532148036,0.7605222474177566,0.7055398643015758,0.6445086221987981,0.5798671056048188,0.5221960971203881,0.4641264667532927,0.39946424629800936,0.334931133616994,0.27867003034538484,0.21912472857079246,0.15440284395610537,0.09011275507004957,0.04096063475366729,0.03222461044459335,0.08036014256756063,0.13949301745113862,0.19587130216204374,0.26041532183037086,0.3251733315706191,0.38993123493392035,0.45420387215504254,0.5090362745116135,0.5702450163410759,0.6349924375476801,0.6987890428873003,0.7528700974808993,0.8152780006866782,0.8756999007786515,0.9289458591720161,0.9511203588657045,0.9443110101463368,0.9500682902091901,0.938443861800496,0.9322508547330537,0.9412380421882147,0.929169922696303,0.9081945564854597,0.885360892106956,0.852534506564308,0.8259141040946381,0.8124818214809519,0.8087394033552819,0.8364439162604411,0.874372038448681,0.8963709698551698,0.9164248409943012,0.9275793885985644,0.9345292915263286,0.9284919118575166,0.9190828775498814,0.9090738592924772,0.893270092688389,0.8683168318440362,0.833476937952242,0.8083932661330031,0.780127693136776,0.7612320085805389,0.7734966956709475,0.820239270071778,0.8669307589409463,0.8861477686069164,0.9038762713840132,0.910995018807119,0.8660618384822001,0.8069807619940141,0.7512895855595139,0.6911786235168302,0.6264460012505035,0.5617247991874881,0.5020127272511294,0.44588648521776797,0.38138459890859977,0.31662658916835174,0.2519156986769209,0.19271924578893973,0.13613323336590266,0.0716075446961737,0.013888706068611478,0.0,0.04305904760633439,0.10361144476329498,0.1583779240089893,0.2226124227434243,0.28737043248367233,0.3521284422239206,0.41688645196416885,0.48164446170441666,0.5464000928887902,0.6094526862590766,0.6632940974115009,0.7267047672973284,0.7899317269487447,0.8437383082790559,0.9066777625066902,0.9483404500315518,0.9248847505702302,0.920654769730189,0.9105577069502295,0.9105856758540798,0.9176311203862959,0.9271898570658317,0.9129143709361716,0.8926858287567796,0.8704887082171913,0.8462304145890573,0.8203676749670772,0.7941283307683855,0.7787826946823937,0.7969165549732222,0.8265760445049712,0.8518172560886901,0.8768076609856574,0.8861147617417695,0.8952551838150529,0.9090985167410117,0.9257076793765571,0.920254816569195,0.906797647946531,0.8835675812439285,0.8579889373196747,0.8218565891100058,0.8004586358489683,0.8024836469752084,0.8326778984946899,0.8772253651072963,0.9301012379023603,0.9636770881741252,0.9844635454904418,0.9999999999999998,0.9561786604924059,0.8960100400620601,0.8404232552769313,0.7763688157540958,0.7210985608105973,0.6604533929426439,0.5981657876378887,0.5440408318777208,0.48016494211542127,0.4154072080868516,0.35064919834660335,0.28630224058424747,0.23119991087335068,0.17036546678155484,0.1122756827916207,0.09757585960159876,0.13993487220464718,0.20337225542577553,0.2581072746949846,0.3194304846914082,0.38417872623241967,0.4489367359726679,0.5136947457129166,0.5784527554531642,0.6432107651934127,0.7079339468550432,0.7675099736893432,0.8237400809465061,0.8868345681330407,0.9399651288736492,0.9720343036848698,0.9703183696128945,0.9740560710099737,0.9792645717976753,0.9763509816024387,0.9607967025551412,0.9478367704331021,0.9347789209200223,0.9119743233622766,0.8796760371310859,0.8466985004064915,0.8215970773157266,0.8007026976027707,0.7953281572364979,0.8300939876292925,0.8631896667653483,0.8873447154888885,0.9030246720699433,0.9241521260741725,0.9306835169190506,0.9306313747974657,0.9403101050067588,0.9418123959406126,0.932187762845303,0.9044802421176394,0.8741861174961467,0.8408692860410396,0.8134511923165342,0.7937643146289168,0.8142778381084697,0.8466388122553672,0.8928608432412106,0.9373482497490417,0.9641459094660763,0.9913423146373235,0.9842624555447903,0.9292362966121781,0.8666898044996676,0.8126965522392047,0.7490585244287773,0.6850412691705612,0.6306859482885454,0.5687488428072283,0.5040059439577838,0.44494848053356173,HB
0.17796408525526175,0.1825990978797929,0.2369146896504768,0.32513545332315275,0.42843378758775064,0.511316456185825,0.5394708908723294,0.5620906256224307,0.6301890772920915,0.6853007241133708,0.7394169783585154,0.7603984868353999,0.7711076611201042,0.7637389971729505,0.7254694353067306,0.6374683125063649,0.5581486434152545,0.5094927592334182,0.5331168851505677,0.4769136860984675,0.407682148140867,0.33440188119273095,0.24171014601675012,0.17846373125019976,0.09329833613382199,0.034427066819780805,0.002448304046930083,0.000685002987137473,0.027149914290851562,0.11797899277829149,0.19774066344750985,0.2701940084776604,0.3460367954860706,0.3963751142653562,0.4079579248604768,0.42797006336249055,0.4302887842056409,0.45655399095802096,0.5105948299098735,0.4833772862368333,0.3817407356382416,0.2778731404422077,0.17400532852118733,0.07124453163491218,0.010425385655052466,0.00023305372429760496,0.0,0.00015594362339310663,0.023584603364930068,0.05818141172536784,0.026764042617252848,0.0226438633331556,0.10498096579354854,0.18174655882910873,0.2444042705431091,0.2591024998489324,0.26192441152885415,0.295562529418242,0.2855528044089315,0.3582284138363496,0.46116994639048414,0.5301925557330982,0.5437842023280641,0.5457864043112961,0.5643608223388998,0.6548680765756556,0.7506710225501525,0.7892801523604751,0.7666773436752141,0.7259256981037607,0.6863702486871759,0.6540534904864082,0.6525195692949595,0.6524752755662435,0.6407950594643372,0.6406695196208476,0.6246451367095149,0.5903908892741718,0.5591487472247696,0.5363585738192631,0.5573472129440296,0.5748717788493867,0.6005448861726181,0.626439086318654,0.6383730160260468,0.6344882469271766,0.6507998839221143,0.6275893382427995,0.6020485892656948,0.5849454808804815,0.5575193898263704,0.5024095460775788,0.47527781041445216,0.4757731714702791,0.5140812314236616,0.5465580885386698,0.6111787909352664,0.6732944071118414,0.7057542576156228,0.711833995591534,0.7115712182394178,0.685694802698344,0.6138596456733358,0.536721225360183,0.45860904750103604,0.38352911714435134,0.365293493552044,0.417305532076937,0.45331098124025715,0.5120874065193268,0.612966772329723,0.712346744691434,0.7917193419853694,0.8301541059296698,0.7658995887607256,0.7163444937898538,0.6850601544438737,0.6537256489393606,0.6525268907958264,0.6570195768387217,0.6674552120308404,0.6435601453184745,0.6022225061370863,0.5927290614847633,0.5662019638805802,0.534544254414139,0.5153869227124117,0.5312075018379314,0.5450589395142869,0.5901916905900642,0.6098052574835213,0.6348732703316857,0.6522556317694805,0.652006236178778,0.6310542040145295,0.6200184508337099,0.5768246579293352,0.534615416686151,0.5123580262994469,0.5044239247504283,0.5239558981519057,0.5743236793477964,0.6262531214623612,0.6733641480256933,0.7018926453057333,0.7359140869084353,0.7152492787534488,0.7324314804449052,0.7118464145678196,0.6279332717666231,0.5456268060466476,0.46810374147331846,0.42167388805562656,0.45997848964835253,0.5311764495383109,0.5953624939265563,0.6509451122787464,0.7489552137746527,0.8358984862726055,0.8956373744183299,0.8434242397061276,0.7895296638053386,0.7308899288035011,0.7119956391967488,0.710084135703446,0.6865227587806624,0.6821856992489597,0.6815185454282995,0.6601934692405829,0.6430636771538012,0.617200619593274,0.5942376178123432,0.5939362574046996,0.6199742944414188,0.6600862782507395,0.6819901164078317,0.6995012580128517,0.7117877357850162,0.7055226878795242,0.6824897810988704,0.6597358904742823,0.6333534555694245,0.5944111430985384,0.5660712188500883,0.5882670216260211,0.6080300931210783,0.674052611301347,0.7301887179356434,0.7996070305665599,0.8588067479382779,0.8940386809193761,0.9190163130259119,0.9129770468010472,0.8899167164455726,0.8508521666817916,0.775647678480845,0.6984329496304085,0.625032320035813,0.5946684194878777,0.6285784966840602,0.6836467805546329,0.7757215559027193,0.8568708525524276,0.9574725928153498,1.0,0.9609457377393316,0.9406016408564382,0.8947091725532719,0.8753024094243429,0.872868408252474,0.8678364785989174,0.8812153708327957,0.8604673574343575,0.8276107128563019,0.7883630396424861,0.7675584954505084,0.7417723885687719,0.7158281714889894,0.7119625795012761,0.7271932256017539,0.7663557068656299,0.7711996051052301,0.7807988953338656,0.7900052536134279,0.7716213638023275,0.7710255559851626,0.753814675077801,0.6853792885697239,0.6298574864944682,0.5998189809660044,0.5657682401832451,0.5700568714934153,0.621034502908616,0.6807775882126332,0.7326254283577027,0.7707454135685907,0.7963563302514718,0.7905347828276437,0.789966699367179,0.7849347898368304,0.698392702272753,0.6193321164269383,0.5508884770231202,0.5359248972249624,0.5600812549028813,0.5945454687646636,0.6803681172736251,0.7840192508358763,0.8765050384948854,0.8936685778967455,0.8600489374459288,0.8233355975767189,0.8012331678823656,0.8008189920236939,0.8008189920236939,HB
0.31044930047748687,0.33237274531369976,0.3150779339413159,0.2592411578663354,0.19968854293670746,0.14225369426402867,0.10278081296317887,0.047565784222613816,0.02610288203272826,0.07695234732020473,0.14342570593527726,0.20365733912163497,0.23653283537823477,0.27754237120742764,0.3389055820056097,0.40560834528295375,0.4723667145475636,0.5384629013601843,0.5994578604536291,0.6646865982506072,0.7314391612151527,0.7981592228483374,0.8620204351416052,0.9239716068192441,0.988320261504718,1.0,0.9433953557112289,0.8806647555822533,0.8168255221280656,0.7549433550226425,0.6887227180907904,0.6271089357409736,0.5636132717733506,0.5032854308331205,0.44396447766209723,0.3853630802617969,0.33716751337467854,0.3081063255052776,0.27858503413426305,0.2359281472271091,0.19011804577880387,0.14424635895900617,0.1148414721842046,0.13355819470623587,0.1799609625866334,0.228479306601437,0.27986170792087517,0.3079924972824386,0.2901552963948675,0.2555896438031111,0.22532361688298796,0.24763547481704373,0.2923736427473227,0.3235738242565134,0.33689608851354147,0.3120801142590435,0.2544521502564199,0.19433345087211285,0.1343148405070964,0.07650878521615612,0.05619449785695707,0.10566638213001145,0.16637993241165727,0.23241631565731735,0.2991744440479591,0.3659338355769246,0.4326932271058894,0.49945261863485513,0.5662120101638206,0.6329714016927857,0.6997307790894101,0.7663249968664929,0.8286060994671942,0.8920974720526358,0.9568485001302893,0.9731889447191813,0.9154531539625326,0.8512727265984577,0.7896334853501066,0.7248624839519484,0.6637991965311787,0.5991678505573947,0.5381973608221082,0.47486200775141585,0.41577644779408196,0.36393835683351794,0.3187001750035643,0.29394882338978956,0.2628617852633124,0.21483267693807262,0.16745480989630335,0.126428315356661,0.1161336969345157,0.15341335018956603,0.20187066234970086,0.24916916833301617,0.2896788965274264,0.2997302039397334,0.2749695432257546,0.24035691258868663,0.22494436920394278,0.25875616614190444,0.30034024150556005,0.33104803240867375,0.3301337977973817,0.28052975185117535,0.22081482934306051,0.16133401585452445,0.10134286589715846,0.047876309216835944,0.05026557672762433,0.10719945391026098,0.17377800155976653,0.24053019996182567,0.30577785870495133,0.36676268271506185,0.43285044471093426,0.4996088174919655,0.5663656898338292,0.6321666827738024,0.693032602988066,0.7586835821263536,0.8254396334241649,0.8921987271563518,0.9577568085626702,0.980095249320954,0.9248755206105759,0.8638840339799121,0.7983425399532054,0.7372991155522062,0.6722538223681007,0.6092503872929047,0.5467823507122738,0.4853446607426708,0.42657144806253244,0.37256188726082673,0.3310877338390905,0.3029058700838092,0.2718736299063784,0.2279893292066295,0.17896753752061811,0.13418479592443688,0.12025286829606108,0.15368566038227938,0.20026718709883662,0.24934571570698916,0.2876872134788573,0.2814544072116154,0.24585660952797928,0.21312965231879732,0.22690045726772534,0.26807807223786395,0.3025969888039284,0.325178720946792,0.298346495669517,0.24091207383385926,0.17896075774242304,0.11275833106434763,0.05143212834753297,0.0,0.01907215573776533,0.08232777327331475,0.14319201379047808,0.2088324554639056,0.2755884166242961,0.3423478081532607,0.4090877845863592,0.47357507417551714,0.5350246831312364,0.6014194237106063,0.6681786240854604,0.7349370272276421,0.8010477238291311,0.8620513088077082,0.9272357224336856,0.9860545563957932,0.9699329722972505,0.9106557946964349,0.8455647013448475,0.7835053699311978,0.7197744040073106,0.6530586710264619,0.5865680793220993,0.5248568546006782,0.46314804607158044,0.41319575648355156,0.36405903889089886,0.3418953812832659,0.32047993831720123,0.2830545916184908,0.23431604727891409,0.18541242527517854,0.14965942544344757,0.15157022777754103,0.1949168017219003,0.24762277059040616,0.2935850367015316,0.32177389023501846,0.29726541037146426,0.2603798438184497,0.2411397888922211,0.2716516420222499,0.3112697287678774,0.3331143206918816,0.3263282436313608,0.2755095356221209,0.21674697140798194,0.1549758709632203,0.0938034619557031,0.034810452692325855,0.009885049458952189,0.05976161380514977,0.12556387551853532,0.1865200181288842,0.25185191921632066,0.3186055818724869,0.3853649734014528,0.4521124409214581,0.5170037863022943,0.5781696031151327,0.64443692533697,0.7111957893336507,0.7779002996872306,0.8413933069343842,0.9036697902161406,0.9694328053393584,0.997838695818789,0.9456919570171385,0.8885037704240397,0.8334687345421703,0.7726725066758648,0.708643457480429,0.6437261271450985,0.5826352129695358,0.519509269260686,0.45930583440166295,0.4011309616811205,0.3497501242273289,0.310893755220645,0.2858152653121431,0.24724857978579973,0.20116146613337982,0.15381953209192134,0.1143763066538066,0.10889632285764894,0.14587891517076046,0.1945105039445394,0.2441024238345042,0.2857199082261186,0.278026120087592,0.243644832866162,0.21117296067944125,0.22424234565729173,0.26776595669870384,0.30303538559652354,HB
0.2090018380006513,0.21188516371701427,0.1454564665993341,0.06497345870798821,0.04662194317903623,0.05437757225020867,0.0667229671875953,0.13424283101286694,0.22290637048335338,0.30094603812581955,0.37075934611904415,0.39560573000524624,0.46061327354257964,0.486861359238858,0.42290267294861694,0.34745256161612526,0.2570266375175505,0.18249580610110083,0.1072216626802911,0.10234174404245389,0.18635978763802763,0.2945052117789779,0.38889167061223384,0.4879071223412308,0.5786684865356491,0.6754529991425975,0.75876298924948,0.7690182124309115,0.7389040071885167,0.7330787695038672,0.7086612490542494,0.674566668879101,0.6199007237229512,0.5468756492099436,0.5072803277900291,0.4920101679724307,0.41272962649072875,0.303980286076309,0.19476883171939097,0.09736558837734588,0.06651111690121025,0.06487911107227706,0.06822772983270209,0.10568705924042332,0.08912635505116162,0.0983245122205747,0.1859977255041887,0.2520121104239834,0.2648264928324031,0.22634705860542859,0.2176164428637053,0.26069748423731465,0.3207954872198777,0.3911297993116243,0.47259156016506765,0.5421811213199934,0.5842395772031286,0.6110619173215386,0.6053288509405164,0.6178523474444315,0.6284312812743722,0.6229147368483958,0.5883112266134414,0.530194462455496,0.4740388866186138,0.44601801393234686,0.44319901555952335,0.5021198368908468,0.5663478299306925,0.6138113024856007,0.6747077003661683,0.7325035766240124,0.738199705652764,0.6656896219655084,0.5808408526138944,0.49083462938095135,0.39002163760886255,0.2993150815987229,0.19634647093382496,0.14621709138145844,0.19216530868904202,0.27788843363332827,0.3844370195904818,0.4936556971904045,0.5962471336462905,0.6882292731633415,0.7796757087500779,0.8322026475661102,0.792183649632769,0.7593394403895997,0.7482432637071006,0.7247169761449208,0.6998801277738487,0.6626286275701201,0.5998434674246393,0.5271238750300165,0.4586075884983227,0.393578053548866,0.3365671587984944,0.2887929105536977,0.32872442825061654,0.38945933920709175,0.4502982666939479,0.5269519671700698,0.5942485870666392,0.6439177346278662,0.6887810137984727,0.7275061473112978,0.7404042434587104,0.745365672666042,0.7337267279583108,0.7094671454764692,0.6621133051250432,0.594635534995549,0.5489639764696888,0.5266090327868334,0.5755699550052262,0.640688905732016,0.6956025087002025,0.7394683272849885,0.7758276662195338,0.7561560888552914,0.6784708533778998,0.5789685045558248,0.4846452488499038,0.3856566778427051,0.30995067701903967,0.30559005838614217,0.377191674109874,0.4800912184985515,0.5806261665680985,0.6749500474038519,0.7746216414443343,0.866056086109015,0.9552444738799744,0.9999999999999996,0.936342487039568,0.8975009419064262,0.8764884365700172,0.8655743165579639,0.856237248245804,0.8168548028523275,0.7544298053226624,0.6887519761999803,0.621442580130017,0.5461732671615609,0.4691011245994434,0.42761623693522166,0.44470617842486604,0.5061525735196666,0.5682322638344202,0.649590880245142,0.7078829905184199,0.7427349609150338,0.7765964215001291,0.7995213161642112,0.7854029662618802,0.7644124830309775,0.7508420951111927,0.7035971557930818,0.6418507382311915,0.592565289347109,0.5516244214251507,0.5245437358905809,0.5609727577150174,0.6302521154774379,0.6752483563642429,0.7451346958106666,0.7947550952883753,0.7627294971255565,0.6905709459741174,0.6118433559678462,0.5174101605515435,0.41902274924501226,0.3103688898035566,0.2171572120254237,0.13754902576716344,0.14749010715579214,0.24219741718338783,0.33736917965112756,0.4366270500955034,0.531134437313951,0.618978858394402,0.7168103747676118,0.8216480658574663,0.8782663411389904,0.8291130125688055,0.7844298839661774,0.7378444848636838,0.7252305128841203,0.7251702626865613,0.6825131432127454,0.6250041980651817,0.5510590992049593,0.48307280386429374,0.41040974139048636,0.33756534790224224,0.26291054402911795,0.2022979484129248,0.2026499297998754,0.2590903810100693,0.3298378898296148,0.3952234333761888,0.461484956274008,0.5318957439921941,0.5924353079889948,0.6304991909709177,0.6239838263575406,0.6239609727808126,0.593944010399063,0.574810200040071,0.5540693755650374,0.48143708857300904,0.4194820271102624,0.36111010159249757,0.330460813193886,0.34844139852871914,0.4148517372163729,0.4803413616116434,0.5412325811507714,0.6027372356627456,0.644652613548204,0.6185914366056426,0.5438448352853915,0.4587447971081442,0.35310001383526624,0.24732389164533908,0.15665881595454634,0.05360322952049401,0.0,0.04614045055198224,0.13603579781197173,0.2390666073943435,0.3465086343134658,0.43726689683842634,0.540848197072239,0.6315022802006185,0.7359908385399687,0.7883309687833715,0.7671478484664447,0.7226039391412482,0.7127690442304462,0.7057897551430607,0.6698072655643834,0.6168236453232554,0.5562559587484999,0.4623506693991377,0.393127426857268,0.33731560204834343,0.28739987863470384,0.3079926978957057,0.3663777409072897,0.4457870532595396,0.5305795486921521,0.5827053682280439,HB
0.5601285765509392,0.5807016813853738,0.6382637509318285,0.7143206426508981,0.7893200648448251,0.8693542991727385,0.9408074454367581,0.9973740956997124,1.0,0.9329395261760913,0.8571113191687387,0.7758837168887016,0.688539374545313,0.6127249963772066,0.5310516947973416,0.44326487671642756,0.35818052172077586,0.28482822358934134,0.1984227150717115,0.11888943342006142,0.1337156678412601,0.2024023696408639,0.259210879924876,0.2878950893542056,0.284531927731114,0.25307237441896335,0.20700477826292518,0.14382601232017578,0.09608013986429542,0.12160123222157138,0.18018500335212506,0.21698590161133557,0.23180468600037774,0.21043424834101288,0.17198840340392252,0.13739146525894386,0.1339477935075566,0.1760310219320833,0.24058957755621568,0.29171772490050474,0.3476500237816298,0.40063079983826366,0.449321151774714,0.4898981672222438,0.5230635361730491,0.5319478860966469,0.5320141403456629,0.537779215471561,0.5813933937645333,0.6527598575739946,0.7257618685383118,0.801102340600663,0.8804134481864923,0.9493010023763584,0.9639183578434678,0.8992872944570229,0.8256691670009353,0.7419323685376176,0.6630833022975513,0.5846680097839023,0.49699782818335514,0.41508986293896655,0.3395347820033501,0.25211925097859744,0.16429373553258841,0.07662510392433974,0.014455531532147958,0.05672445198331344,0.12247675214543641,0.18777642278203643,0.23455360568260453,0.2630537736077536,0.24424836001880568,0.21679046545035385,0.16696936087811975,0.10734468877262948,0.07932437103334777,0.12323271958002247,0.17410005211577184,0.21551027418689284,0.2468024142790095,0.24121492747412487,0.21972735363267226,0.21499780644502176,0.25566419473545166,0.3066418113811231,0.3586706242287958,0.41269415467769965,0.4627325204689572,0.5118756591014368,0.5593370175217003,0.582576736630465,0.5864425117862857,0.5721977770227342,0.5706316737696611,0.5936728435504373,0.6508360504110353,0.7347344388791002,0.8129452236638768,0.8895704708060004,0.9577932865549079,0.9923859579360954,0.9503960792181614,0.8751588433436988,0.7959914073251446,0.7181762807616021,0.6305330713295367,0.5453223561138119,0.47199429793183967,0.3856832660882872,0.29785866251703386,0.21003441582655258,0.12533687281563477,0.11570276052152995,0.18935726912864004,0.25146930598414574,0.28356091279155926,0.2863645296403825,0.2528891391357311,0.2005448558288987,0.14478018181588626,0.09995627858310963,0.11632387410276168,0.16800006470618278,0.21520722765785205,0.24898411223565597,0.2667315328520652,0.24705720010329113,0.20933620801899533,0.18547768098499073,0.19746538649751688,0.24325538289518667,0.30279932869341764,0.3538645534358218,0.4111851330332117,0.4573989972364205,0.4958611659045107,0.525734330095486,0.5309874620854909,0.5251690814845462,0.5155182786462076,0.5318841138478101,0.5859090820330608,0.6580278761608231,0.7395820859727849,0.8145477428828505,0.8907749944894259,0.9467302971390956,0.9315153942706282,0.8595184637665914,0.7763925321536531,0.7020671829650063,0.6150597002577447,0.5319604711074928,0.45735619910471703,0.3701941536081721,0.28237067229229185,0.19648550070712334,0.12320346646006275,0.038322581963708746,0.0,0.05961935592075118,0.12825283548536293,0.18848905419159845,0.22378645507265738,0.21922438028181324,0.19887848975872524,0.1594224248506353,0.09838058947112494,0.05658620049000351,0.08492029714342575,0.1313537189708005,0.17432273943072873,0.19019279525777844,0.1693233407761876,0.14054431135299472,0.11194201564047246,0.13231802201220155,0.18188770873314253,0.23307649680878395,0.28868448723397355,0.33960130329431815,0.39002155313672304,0.4387796798154726,0.4614288946061582,0.48896008562701043,0.5000800115413342,0.5147500220584673,0.5258604055764726,0.5583071028514861,0.6221578389899012,0.6994650730641783,0.7870909651707003,0.8695683028026528,0.9399925698188736,0.9899957931576417,0.9625804116199244,0.8913704718175697,0.806991666176506,0.7336878479439957,0.6476241140797572,0.5689992981362666,0.49035344272507553,0.4026360135066036,0.3161534720182986,0.2425559630052394,0.15778672304848973,0.07360263063499062,0.06784010854235234,0.13808870930432082,0.21542658850610197,0.2741238267750421,0.28958079534564707,0.28466848229177266,0.24554652829341395,0.19619818142732193,0.13892614974393025,0.11836581320535977,0.15723934765719472,0.20685028051325016,0.23893933332276207,0.24015508682704834,0.21492740764982532,0.18056543526298574,0.14724046779132305,0.17146888247165526,0.22484740536052072,0.27504197833567057,0.334569689499276,0.3913049130711608,0.44159058588285083,0.48367028195896555,0.5181175296323621,0.5315134597582869,0.5187159289183598,0.5084931525123446,0.5347844311146832,0.569108933043077,0.6331920904278716,0.7053325606843628,0.7808765224497809,0.8607910335636046,0.9334166037572276,0.9713248579785638,0.9340882005313649,0.8502311115482502,0.7625305666992421,0.6832755342464454,0.6054425803712498,0.5331736882573175,0.46669720261934744,0.3911976870790186,0.30994156472195256,0.22274548049398435,0.16428981400118658,HB
0.3374693319394835,0.3430597264327129,0.3867934490706193,0.4559006885611576,0.5300976090020879,0.5791688804718245,0.5724043540821335,0.5266972742992371,0.46397562247391955,0.4421827029604919,0.4037734538108255,0.3525772035008181,0.37679082589799817,0.4399315893661817,0.47352914527973855,0.5362306498331812,0.5836147580753015,0.6253553198001849,0.6772863199004946,0.7278913685233968,0.7646076579969225,0.7931424794527406,0.8259982012612626,0.8572286377014566,0.8817769790198215,0.8955800478740477,0.9011243432253657,0.8821383921568375,0.8495297734774421,0.810828781923306,0.7646781999968435,0.7335907983938945,0.7053098847670016,0.6866394020067772,0.691794046495835,0.7224203009632078,0.7585995862057109,0.8030555648431821,0.8359256761021161,0.8340941093683019,0.8444649790809673,0.8288815724739731,0.8146199883425904,0.8038254067453376,0.7840710670053896,0.7628649079338836,0.7346952078336666,0.7125240427772099,0.6631161118083035,0.605993089358615,0.5489550928745635,0.4904751561479306,0.4246917149097027,0.3826001123497682,0.38974458182297056,0.4432592957413908,0.5089390081770961,0.5688161105495277,0.639788647628643,0.7001178436876092,0.7732257669655747,0.8292219434502224,0.8760677370057182,0.8867224957831317,0.8972554150142256,0.9186558325905874,0.9080414758456778,0.887819396553502,0.8671828316039383,0.8749137982841431,0.8736863957425314,0.8467575954781603,0.8324312626293828,0.8284713924603904,0.8147985942176637,0.8079555871991015,0.8339500109740068,0.8433992214795607,0.819696105440249,0.7783336078847531,0.7647490749306316,0.7660344511553978,0.8022752492359873,0.8391353392612944,0.8554782506487535,0.8303594336042073,0.8329459089274645,0.8371511386759605,0.8120294921084232,0.7794083905534093,0.7280819811875379,0.6706227069264066,0.6082621664890655,0.5561526819973976,0.48870044367961984,0.4266196632376187,0.3687775574138321,0.37038316315488906,0.42141090281711246,0.48326859184995685,0.5488538763571302,0.607583819424919,0.664689184837592,0.7138744593942232,0.7390693869812015,0.7564706612920777,0.786835935828972,0.8039081401565209,0.8052757577709837,0.8028445032301836,0.7755233330434388,0.7456219098519785,0.710530568678513,0.6798705766927449,0.6418649853416292,0.5978258359936852,0.5607769254641704,0.52759451283102,0.5020887409395276,0.51992699019325,0.5704447247806357,0.5997422869078508,0.614106062135575,0.6078140233966889,0.6009235402530457,0.5823076707167467,0.5450737316371757,0.503911391316537,0.4675584768509191,0.4595235028498954,0.4590783648568668,0.44089112077819514,0.4152417699201849,0.3618266415179128,0.2966395314714698,0.24539706186762267,0.19142945915762866,0.13273940931959638,0.11792761556846498,0.15698840908468048,0.20938644730396616,0.27919774557873867,0.338663099301582,0.3956944529724642,0.4415262330728509,0.462485816883925,0.4766183680156151,0.4430695975549326,0.3990242262096859,0.3721630718676572,0.356430327241148,0.3397994595279412,0.328775992818946,0.2889145278735761,0.2709197877888516,0.2408860940669677,0.20119549310124363,0.14476506647503662,0.09273762838562938,0.0312873353028702,0.0,0.038239335051748924,0.10497313615593784,0.16823787926782874,0.2441671599890607,0.3169301834771794,0.3773770889696584,0.45259850974609606,0.5284734186051079,0.5913120379951464,0.6610489280532841,0.735066358951324,0.7935380082109615,0.8505574112927037,0.9083457641692587,0.9671460176583553,0.9753555861265912,0.9812025631749712,0.960994862998021,0.9258282468514736,0.9122386165956637,0.916079383033984,0.9317708445599124,0.9746301798641075,1.0,0.9836299141449834,0.9803063947160289,0.9600369529292334,0.9007360943533569,0.8672494048832649,0.8442038568327295,0.7940652606278675,0.7315559755582131,0.6740754222895875,0.6119515566934481,0.5448632080769857,0.4800471386216616,0.41290099912916745,0.4117409815473141,0.4537247606442665,0.5188120268398442,0.5840498372529379,0.6481772319211756,0.7141032999620744,0.7600185844577028,0.7915439551358299,0.8339941496733223,0.8514875553980716,0.8556071200269897,0.8270702886465324,0.8154890646314641,0.7967073591916956,0.7770213255467691,0.7424877207808143,0.714376696052673,0.709288848760647,0.724924291188159,0.7418124623840754,0.759882595077018,0.8052196096750315,0.8491214108668119,0.8697113580790399,0.8977459386360467,0.9173178900183632,0.9065818953586371,0.8708636366980129,0.878329415212094,0.8780119504398667,0.8627759994112001,0.82459567490735,0.7854607483377181,0.7514819510789779,0.7489062698708855,0.7782912248895286,0.8042230698516244,0.8201235644167335,0.7982900557122616,0.7605507486835354,0.7044401465136967,0.6424100677576448,0.5846826356564434,0.5255262363752062,0.45096909215701153,0.38938750713698855,0.3466428746027943,0.3551541442592203,0.4037091048142267,0.4708667725910476,0.53303533232905,0.6002166227846932,0.653971111921801,0.710278187508186,0.7650208094480928,0.7628228460052493,0.7447882526148972,HB
0.054214438185644864,0.08918371869874941,0.13189970571218845,0.1744129795248155,0.2151284328884393,0.24955726215179763,0.24507905832130583,0.20048888419003896,0.1568838011630087,0.13366856189466714,0.15232140083081158,0.19747204278771746,0.2321438272134626,0.261050054930164,0.26922376228219713,0.24635415401706862,0.1912849277427795,0.14172362147737072,0.13109807796877626,0.13850563389690884,0.14076235770729761,0.17136641379383644,0.19709372658183932,0.20678319057980876,0.23703078569546832,0.2734666278762039,0.3073563180588783,0.35513253092675523,0.4058879551678902,0.4570244358802238,0.5098608353275631,0.5634986193993075,0.6176389674693172,0.6677207341209306,0.7151636989612673,0.7706435822735618,0.8261848828325149,0.8831802939156106,0.9377527434563979,0.9832772647969412,0.9609580131922959,0.9041940220570046,0.8472570341384551,0.7909137069942391,0.7327404808911433,0.6827112081741518,0.6425743544143727,0.601658516261343,0.5554864457658981,0.49633812438755354,0.4407303342072886,0.386320283171137,0.3331205424449557,0.28209792124742283,0.23677608764973956,0.20160944776538892,0.16959353756288453,0.13779811694130717,0.10425909133458977,0.06607980873958108,0.034905901527874206,0.014456983935296375,0.03801703720504912,0.08047127168645174,0.12484459476514909,0.17198139230580045,0.21611433228745724,0.2589515845050714,0.2804207883366292,0.28169715770032977,0.30777413256272923,0.3522443699283977,0.3998652050253897,0.4474928452294933,0.4953065977303521,0.5508738013035683,0.6062802987960176,0.6616755820182028,0.7169744643006741,0.7615119627756932,0.8145728232342482,0.8691067105262189,0.9229481279842651,0.9457814674167284,0.9016460922215281,0.8439845994670843,0.7883271852294893,0.7290305525127676,0.6734808404849957,0.6163106976533239,0.55916200185229,0.49799012462870085,0.4383114977555731,0.38416513004684694,0.3312745662528471,0.2801034247693228,0.23518638689804594,0.1999494002698461,0.1647373236324261,0.13014936452647108,0.09412035598317314,0.05894458403546432,0.04329014167590839,0.06469350046936895,0.10568843031242037,0.15104004170220642,0.1911878804263667,0.23076053921582562,0.2605228720217607,0.2696367433541593,0.2729084425299535,0.30837863611854766,0.3554319696168129,0.39797747737267275,0.44202656668976137,0.48948719022084264,0.5414768857563286,0.5976628837855398,0.6585040834505869,0.7150599190552558,0.7713149889021669,0.827228568501712,0.883723472843313,0.9399471131295882,0.9922915102910359,1.0,0.9477149917891505,0.8910949804090904,0.8326975886076815,0.7762678305703294,0.7185161587717277,0.6615309412094423,0.6034767874932494,0.5467177117755182,0.48932056218143205,0.4319113625955502,0.37343908583747476,0.3198108647458322,0.27077563593488674,0.2290800071007535,0.19571329662929715,0.15765707647869287,0.1177825642023016,0.07782081941669095,0.03747055217661577,0.012396714445368828,0.028067447613079333,0.0670130420376931,0.11167402119466607,0.15884698728918778,0.20291353883175223,0.24274416603118354,0.276424122277213,0.29027877261830604,0.28400680282279267,0.30635227857324243,0.3508648277761479,0.40047628766136634,0.4486945092050212,0.4968575067720564,0.5485301593999956,0.602383697488825,0.6570089900526581,0.7159812854171148,0.7768113285323162,0.8319085199899976,0.8805540051666345,0.8803054338279019,0.8292277813656588,0.7748295557110967,0.7272584561024793,0.6759938858329462,0.6183494147494826,0.5627910350112744,0.5075059178620553,0.4514188099028855,0.39679406840268006,0.3412579435275769,0.29008466729688087,0.24807025788738213,0.21572127665094265,0.18367594120262054,0.1485224589439209,0.11652292277322673,0.09608769882166412,0.1047868884450407,0.14065158442008996,0.18404493382418563,0.2265338934527532,0.26027453410977275,0.2763062818687432,0.27016587950924964,0.2801532348226925,0.3235319081280177,0.3722695796888611,0.42184469728450846,0.47242638095343037,0.5198375778710798,0.5715936155467634,0.6264692767497677,0.681989220628149,0.741129376932943,0.8010465787823464,0.8563688304723684,0.9119610102751816,0.9666867168509861,0.9903821433413194,0.9456394546802147,0.8866931907762707,0.8308600354210429,0.7740112305064848,0.7273673106882335,0.6729444674955714,0.6168468243150553,0.5573097336031274,0.5017086578746004,0.4437740150166305,0.3899104837072995,0.3362487204059119,0.2814161734227014,0.23304019562785094,0.1920507525540336,0.15366401829877763,0.11659617939555189,0.07192947553966178,0.02933827425975566,0.0,0.0074970317992979485,0.039940421087413025,0.07850262152610621,0.11972831193206734,0.16490716973754904,0.2105086038521775,0.2478013356678348,0.27465289372923163,0.2799201642892395,0.28675167538769264,0.3285429726501099,0.37776521068703484,0.4288350540525774,0.48023054437001655,0.527924289762693,0.5796686526210311,0.6333621783853796,0.6887746987514594,0.7446840228090492,0.800367354485455,0.8595836819817009,0.9170241459986042,0.971160223011436,0.9986068081882824,0.9570136615989409,0.8997127312769493,0.8429221381510006,0.7867208483763051,HB
0.27722804421567737,0.296317680430477,0.3611215874444218,0.40999551675443513,0.46286410519500576,0.48108054236328535,0.4449419047612335,0.4006773919663904,0.33837017165220695,0.28013624284714966,0.19715707461562504,0.13582425813228438,0.06673128829539543,0.025215000325396808,0.017724576248359547,0.043324778024766086,0.1215028980423396,0.18710812607808025,0.25390728619039704,0.29832280881062134,0.3582227935732294,0.40537317852303145,0.4537454327496908,0.45678607344875566,0.41342636866025284,0.37682504835493136,0.2925299690287506,0.2005673134702013,0.10871525209332367,0.0346404736710717,0.017664707445943506,0.013922466697589009,0.0,0.03631532386768521,0.10547380206114498,0.18526933611609087,0.2662198711995143,0.3580332174872729,0.45000786314411734,0.5386985582068147,0.6142255650926276,0.704708615937514,0.7963515665525418,0.871964363036088,0.8681039556693757,0.7979687826563984,0.7316501165187357,0.6986488075922446,0.7036179046982691,0.7177233245805641,0.7277561871173841,0.7295982739248865,0.7089762320528354,0.6724550195962262,0.6254460541710687,0.5682032024299759,0.5122827439916438,0.46431197579370975,0.412772949672652,0.3855813108977957,0.36813721340525474,0.39909298740929966,0.44108789540751037,0.481133441997446,0.48340281214081626,0.45860154911852646,0.4126299704673815,0.3566417396692856,0.31674894933039255,0.321966368384778,0.36418420827665265,0.4179078513645167,0.4704550385181694,0.5073367693813706,0.5083538949722266,0.4470530800558543,0.37817472945405406,0.30895917153137065,0.22793406663815086,0.15887187212491094,0.10914883864318137,0.1277212748950438,0.20569934229360243,0.2975463146743662,0.3895263982906867,0.4815064819070076,0.5733659967856997,0.6547785371532737,0.736337232709527,0.8281791792147017,0.9173486776193052,0.9705207239653908,0.927066837200031,0.8626879904544658,0.8049605156825428,0.7823916594494293,0.7734151683281385,0.7729564673846214,0.7746793337873585,0.7522922512485284,0.7261168430784553,0.6792133869143395,0.6321671705703684,0.5803296724155986,0.5142682632774251,0.4573588359793619,0.4114675740676179,0.3793378105142602,0.3619911133122189,0.3864310842978642,0.42550655350887157,0.4473787039261641,0.4672077710508944,0.45679271157800594,0.4061390213142917,0.3487697262890834,0.29850530640908746,0.2727055695064604,0.2883482907268884,0.34317351292370635,0.3901661043449156,0.43431037333402367,0.43113256436898695,0.3701336564205784,0.29253584942228095,0.23117982025301842,0.15806035326692225,0.08399679517182035,0.014263188893379741,0.004520450241111806,0.07397449404537726,0.1529539684671759,0.2368558545862185,0.32878954959838635,0.42076951446431377,0.5120251174232795,0.5889009221374382,0.6754809080841611,0.7674445497290439,0.8588400666077596,0.90260307335934,0.8354071535696805,0.7830049400516623,0.7316857787505766,0.7144730088495685,0.6992039182270648,0.7075228538868048,0.6973397335373384,0.696028185043351,0.6667597127166767,0.6141945251310554,0.5710237844093786,0.523053838691188,0.4720750456524283,0.4186110252709163,0.37090959061011297,0.35719536623371306,0.3743114669670775,0.4080471011439042,0.44382755427718834,0.47773623423920863,0.4771834283933978,0.4312243585283624,0.3850602211019014,0.32209025591680573,0.27723800528236087,0.2794287882666766,0.3272946783173962,0.39295244449497435,0.4440251151025798,0.4856186712749828,0.4996464513104528,0.43888111287312315,0.35857980837564307,0.2932005909475093,0.21945727516147695,0.14561995103535885,0.08097656002171671,0.06980347810188636,0.13354136714591647,0.21189182408109142,0.30354501577977766,0.3955236379353124,0.48572706749296746,0.5609684213965198,0.6502230228894263,0.7420854386461215,0.8233743883051932,0.8669861460765933,0.8211602331142505,0.7705248932464333,0.760443602670922,0.7505876495953792,0.7578622362613654,0.7603782604913318,0.7477994084777904,0.7133407257054998,0.6744669795283018,0.6210277070792727,0.5728607364294702,0.5103755826972702,0.45903430769376286,0.409539196458256,0.3896905813523439,0.3912331809453691,0.4318626645928796,0.46200662132840753,0.4794039965967274,0.4586034371405736,0.41030593090133305,0.3485170151127148,0.31480357311893714,0.2971853949668932,0.330761588917293,0.37910829890619446,0.4483323723963384,0.4910019475250498,0.5009437919850392,0.45420412972951585,0.3812325460560113,0.3072776854838555,0.22390251084150403,0.143943416726239,0.07942520412626974,0.02698032995658428,0.048421728188792645,0.12987696262310777,0.21871761131524847,0.29419877584267295,0.3845280111790559,0.4765075643191641,0.5684876479354837,0.6603088142525975,0.7412963314368874,0.8232959713731511,0.9151575436920885,1.0,0.9919072443678285,0.913341816053074,0.8400503460778865,0.7859560195033528,0.749646938342539,0.725854460403947,0.7307286666748336,0.7389474726415606,0.7255136232076151,0.7109191497623608,0.6598428118508677,0.6091829682743048,0.5555028504855897,0.5023472743687836,0.45348634794077647,0.4078247208877861,0.36365165586590686,0.3670900946797935,HB
0.9450217625417343,0.9141736799543878,0.8824212002001124,0.8506681734929602,0.8163769128518252,0.7695011890151964,0.7122561079907443,0.6609012633583795,0.6386509730573477,0.6611896524765353,0.6881779604901777,0.7338000737319748,0.759026369987394,0.7978252018697747,0.8204950229078447,0.8059511585867325,0.7203369135658884,0.648260875255346,0.5594186791265825,0.507589811330388,0.4238275068955586,0.3292591076034119,0.2346502890879094,0.14004328959994794,0.04866806363466658,0.006618358339562036,5.910580467638482e-05,0.0,6.394800506281939e-05,0.015639640100177488,0.05990437199060228,0.033798584736007165,0.014124513875307443,0.06630177809012405,0.15285768298550906,0.20413737965746925,0.2567776534064645,0.23251995231362166,0.22775344487711457,0.2896799290059393,0.2744809419687497,0.3054976070501709,0.3875018685031817,0.4361135125408948,0.48800068099523397,0.5308345630615499,0.5932874268001544,0.6673872545283759,0.760320141842576,0.8328040272113952,0.9211705109685253,0.984075597357509,0.9877776200631425,0.929909642670232,0.8752236411541645,0.8803126319272714,0.9332460238959168,0.9343414453951162,0.8568157543981147,0.8109450014588901,0.7836400665464813,0.766934489493714,0.7503527048265184,0.7264770313128395,0.723173578461247,0.7168212393313276,0.6929877370163471,0.6639976588844458,0.6158239115846689,0.5839613787300033,0.5906889169993388,0.6073207732928854,0.615997587830516,0.6366190160942287,0.6633305132487983,0.6929566550645383,0.6971726831196241,0.7131068595138395,0.6845536041682543,0.666169189655121,0.6841664944473633,0.6857289432592939,0.6617899993219067,0.6245886505264755,0.583987401784456,0.5289650537775286,0.4948125502137808,0.5186406121565286,0.5609668542609754,0.6074940400543163,0.6613141595400585,0.6938781107707142,0.7252630531180762,0.7496849990725964,0.7101107774929059,0.6338520410552224,0.5548150345436698,0.4892105823500019,0.4665013217456888,0.5138688526730695,0.5901438426954719,0.6771801798807919,0.7509720166534537,0.8401499681037254,0.8832603678416584,0.9142371403544169,0.8743790453150861,0.8678307195814785,0.8734718455263666,0.8661701010762402,0.7914509332809416,0.734024481490791,0.7232274733951956,0.7229826879277796,0.7058336847217355,0.694314988313943,0.6942426164330859,0.6872572222396238,0.6455686250562822,0.5991616010691327,0.5815261368594076,0.5974147764944897,0.5792052440238091,0.5810042000544611,0.6305824264874005,0.6649538591526527,0.6668204958592243,0.6968629520340999,0.7224963339455623,0.7231788979521685,0.7223536252206486,0.7012686419534795,0.6924621429108635,0.659139215952691,0.6162892458475948,0.591722041668282,0.554095293109131,0.5496416951726149,0.559725559318391,0.6248537683193156,0.6756893876071155,0.7227350719331609,0.7510322736555279,0.7448784198074891,0.6935134498409736,0.6067908500356456,0.5364040023385179,0.47635382315197194,0.47739905558808804,0.5251072943307893,0.6023387625285697,0.6721838638835669,0.7232549613312056,0.7741210257607314,0.834994273652022,0.8388870462380371,0.8379928494153361,0.8096012616369084,0.7487441974948315,0.6982807015328989,0.6941294441596799,0.6795920759623852,0.6654271102895999,0.661836321904957,0.6385277394086781,0.6209421831258313,0.5986805457262978,0.5582830251523392,0.5276565801184194,0.5241482438828093,0.5479785498470484,0.5652506308927139,0.5991529946449505,0.6340029223545729,0.6419053056301598,0.6664185440896269,0.6913612197073471,0.7153516103392059,0.7231614050159036,0.717570610973504,0.6794891246763948,0.6558635579725918,0.6121715899589057,0.5804132642629432,0.5786207730104724,0.5933830101936275,0.6494845953731829,0.718361668338142,0.7558166113722189,0.7935430035095559,0.8176683304307009,0.8205490081006479,0.7546350121862186,0.6649182595942706,0.593148342642996,0.5081057430109039,0.4677332495684645,0.5045509586718175,0.5767137142195775,0.6593187292992981,0.736461805897414,0.8230708324883125,0.8933571991419624,0.9370437006659564,0.9294457350276586,0.8710686017697116,0.8505329062513267,0.8725002251217298,0.8787993344160956,0.8261721957220214,0.7909699740947245,0.7553232645018699,0.7521084984508226,0.7518946486995652,0.7319834191107635,0.6971115003335742,0.68054945313503,0.6491612775984494,0.6175357512999655,0.5870266900289218,0.5725667618201236,0.5512957949902679,0.5717869021999489,0.5859953517008858,0.6073398755655335,0.6285006482073703,0.6364124886125051,0.6444805356360614,0.6647508920119254,0.6626760394206217,0.6390012647646843,0.6221205688262277,0.5906922995022263,0.5559893008157655,0.5022643506126423,0.4947955605632872,0.5186873365906441,0.5407466272241219,0.5962409935821196,0.6364525304998461,0.6755482873226883,0.6939592115719213,0.6731037090271714,0.5948844629032894,0.5217785841823126,0.4491966219923844,0.4099566011816904,0.4474703597696532,0.5319541321237589,0.6040902527918774,0.6937416550932962,0.7840865475874086,0.8554779831067831,0.9402370383654199,1.0,HB
0.4036606318373832,0.43499195641109667,0.5154298530527219,0.5919716749806998,0.6378368570017696,0.6816466881527115,0.7234071040367156,0.76024569207341,0.7011055756912432,0.6086993085889891,0.5159843429367466,0.4328429691014031,0.3664837652255204,0.3161378076996182,0.2948669968771269,0.23027653153543692,0.1393142665459819,0.08318793643752942,0.11989973592764303,0.20140996045419524,0.2924386308533542,0.36962637050867597,0.38275822594491915,0.3217341739354227,0.3085895081444954,0.3460584910368385,0.41003259193491104,0.47862529946112664,0.5635349373498504,0.6506196287290944,0.7331635607005524,0.8252521853514696,0.8825294790460969,0.8335479506314507,0.7626432597093258,0.7052830790945848,0.7103751328270791,0.698731543229623,0.6467009469044367,0.6187955208147562,0.6192476779929796,0.623979641633615,0.6462748143028172,0.5950528793219476,0.5537458053769928,0.5819328088144591,0.586464772314963,0.5224903503533094,0.4625253838667307,0.4849945462784091,0.5055882865332779,0.5360691610158157,0.6088588470565113,0.6662076689336582,0.7272383871072843,0.7064917147086813,0.6430034653229959,0.557640170216577,0.46958904928006495,0.38778531192760735,0.29551107108882846,0.20554541608700116,0.12628847471579663,0.07094177295751924,0.10816617677300577,0.19178420710696287,0.27399771731742506,0.3663827301830329,0.4592024198491016,0.5514706934104363,0.6332019123228703,0.7213738418125764,0.8103176184276828,0.8190119512595668,0.778917629703106,0.7367335383442657,0.6828808156638888,0.6325295149158268,0.6024807251227746,0.6161605902081684,0.649438385146826,0.640014333786032,0.6659335690747787,0.6545557723740423,0.6382576510751798,0.6578655156837478,0.6254982967790435,0.5749958273664051,0.5344257154639274,0.5436645452122266,0.6108817783562506,0.6564350939100159,0.7114874813817682,0.6891193113367713,0.6249968286130385,0.5385100043636593,0.45761825598563277,0.36828919963992,0.27560698295308894,0.19076331781345113,0.1066808710794418,0.04150742383944506,0.07745090777418229,0.16622157454740005,0.2465702285794742,0.33747118977013013,0.43024814631477337,0.5178603679231975,0.6000571807570543,0.6922906872445567,0.777047103860415,0.8380739976532388,0.7915972261779021,0.7226144269445607,0.7181050179524116,0.7472321871845016,0.7178257614167172,0.7154377595951291,0.696308997686601,0.6839363226285609,0.683519780278202,0.6704635996979333,0.6404925021424108,0.635209677039557,0.6729114614255156,0.6557812683122748,0.6175922577628272,0.628702277377378,0.6879958012141119,0.7478520090286747,0.7948499378982805,0.7922901136470961,0.7213856959902931,0.6436379415573632,0.5555943865651387,0.4728003981861013,0.3859040397263649,0.29314529216443574,0.20346853627195616,0.1327964740665739,0.1382739895134817,0.22084659992537237,0.31019295290128435,0.3910422038656485,0.4829355882693869,0.5757187133635071,0.6635397283902966,0.7455712860670536,0.8378921060569646,0.9263160993437602,0.9492900964087245,0.8883366241342956,0.8354535721390506,0.801050691512526,0.7714706475663071,0.733504417771083,0.7170286153345264,0.7269962347382206,0.7416328342744811,0.6951868995338328,0.7144404806312883,0.7582081243785721,0.761097652550093,0.7404344068283395,0.6899894901902432,0.6331271543033217,0.5952983071057818,0.6184213159823364,0.6888528938879301,0.7493653898040469,0.8251615120154909,0.8565899115380087,0.8155919284816946,0.7362479915686766,0.6533656390575371,0.5667715494591112,0.4843066273018257,0.4155066982510176,0.3360389215207462,0.24442493911586194,0.15682313384784674,0.07615530517033342,0.024330399417984427,0.06384108678648248,0.15032102377159084,0.2431134354708071,0.3354701368454598,0.4177089848380633,0.5052935834975156,0.5980803666630674,0.6909001542203663,0.7836954076892253,0.8720797045096198,0.9529659284550309,1.0,0.9323037722447829,0.8982598091081453,0.8712471752787265,0.8022642080409588,0.7648546248311048,0.7422796137080514,0.7420851134979309,0.7331946585049698,0.7496588409574785,0.7355655344615317,0.6970926281176841,0.6740134952253625,0.6662256755081413,0.634000260822666,0.5868094533297885,0.5777713638465065,0.6108245751981061,0.6846085475785606,0.7459517800446487,0.7373049640635285,0.7573688531321348,0.6921405666166804,0.5999954681240838,0.517806524583424,0.4301843604312685,0.33740453324060926,0.24458598104304752,0.15334722069572626,0.073130576700144,0.0,0.009292651808173291,0.08517436898725217,0.17765524575622926,0.26634591323347934,0.347721363265026,0.4398197502490433,0.5326395378063373,0.6254593253636358,0.7182791129209343,0.8110422964138615,0.8951534590460781,0.9038008861588467,0.8545662951150521,0.8104442805242749,0.7596661909410449,0.7239585508642019,0.7204011135483288,0.7029905545408544,0.7052940210334135,0.7069639224440252,0.7000382343523288,0.6592346591555969,0.6630096271474795,0.6612817165074061,0.6251360637554177,0.589994537655095,0.6155620938885433,0.6687731598857498,0.7260994189093872,0.7698641834207325,HB
0.13013217518210718,0.13432758050981564,0.17714930945468144,0.24553560286378273,0.32300065913900955,0.3768536357764325,0.3641582065703064,0.3080957888006792,0.2842750621940211,0.30865613375281065,0.328357114392706,0.27446020528654236,0.20976114076380092,0.1513648705953825,0.09621528924941725,0.040770718158472885,0.006674704468073056,0.0,0.008394529513594762,0.06470595520883604,0.13101134634518585,0.18408895957778482,0.24261183453220658,0.28701100569137505,0.2948182349757591,0.3441938821808379,0.3984728288382744,0.4505654947724729,0.4558257915500592,0.46459381646778786,0.5078493862155802,0.5504744639730168,0.5916325626231425,0.6375267065842252,0.6392023606041914,0.6147183430700749,0.5460815660602196,0.47840986468786983,0.41113308069767207,0.3333939451016432,0.2715365286679119,0.24085022831317815,0.2673519347879356,0.3357752297915573,0.4139784679818881,0.4900250845486922,0.5507783617805195,0.626997478814181,0.7052389726426251,0.7834815137371991,0.8617240548317722,0.9399251017874368,1.0,0.9525914483625364,0.8806560272784574,0.8187607282196767,0.7588318036224813,0.7018979953117417,0.6614357594060003,0.6245582319431895,0.6146850219407409,0.6290817413772487,0.6277393421869357,0.6104048676830609,0.6077072459342574,0.5962989946801613,0.5646293762829111,0.5324739146234649,0.5062170061657936,0.499239465830533,0.5082754017434512,0.541856273988921,0.5689416419199866,0.5857547830469514,0.586044677177552,0.5860426873719082,0.583007398035805,0.5688408829873719,0.5845835103418118,0.5855826750736783,0.5647851511506055,0.5254324448110639,0.47543694713237095,0.4179896715551612,0.3954985787419778,0.4268780961353782,0.4659769429904541,0.5052199695441817,0.5520744149583168,0.5968475039948373,0.5771980914768804,0.5660753983785956,0.5834155229811033,0.5978466818401262,0.6052313918631742,0.5874894277924536,0.558944567196868,0.484432210297971,0.4157544104491788,0.3494699265014991,0.2716937033981095,0.21217157172960022,0.19982406605253944,0.2520059634774756,0.3125125824853443,0.3887790738131982,0.4670206592774284,0.5452632003720019,0.6235057414665754,0.7017449401872757,0.7745143370908081,0.770423691606875,0.7127198207193541,0.6552269718255497,0.622129009101799,0.5912298115064751,0.577264242312816,0.5645220708779695,0.5643324025673828,0.5614297127216927,0.5423878500984576,0.5223815000562628,0.4964185735955007,0.4729840857820835,0.44272783990600484,0.43424523671565085,0.4459058046739366,0.4744691804807242,0.4986980684546687,0.5199502981432746,0.5418455235091977,0.5386398860300794,0.5218383554061079,0.5209117413225455,0.517752353692098,0.500542670808902,0.4887026386667386,0.4520389556122981,0.4060772291804402,0.3638995607197111,0.3508190719085338,0.38143418072852286,0.41435455479723027,0.45596848741816665,0.5124898714452502,0.5298263137246972,0.5210117098538163,0.524895042367556,0.5416005965312318,0.5346597106799607,0.5352371805721639,0.5214819186842656,0.47122182781143795,0.4014057232419894,0.3232212556770633,0.24497871458249199,0.16809208661763764,0.11769172582552079,0.11953307629413246,0.17970481839442343,0.2420478328458806,0.31973056559558666,0.39797018505003123,0.47332897470674196,0.5343179539168497,0.610990510623489,0.689232881537317,0.767030343147058,0.8016631286819793,0.7381908016834564,0.6790026866318106,0.6254135395230636,0.5864514311392157,0.5587790951874836,0.5283779912261433,0.5210866312048728,0.5334790847225541,0.5348056525254345,0.5208666755460354,0.505924581825345,0.4987640085225111,0.47827291429634045,0.4557598073031799,0.4416859665904478,0.4548537817756535,0.4757984405978397,0.5166904320827777,0.5371116189399103,0.5426127931151097,0.5426238981152753,0.5426238981152753,0.5426238981152753,0.5426082466725455,0.5366550517143076,0.5075861416514735,0.4578058441865571,0.41305106472916675,0.3917653210535561,0.4083038074685552,0.43546112416167215,0.47453413388093324,0.5270672780278884,0.5751894509652877,0.5533408360045411,0.5489338874828618,0.5639374166777094,0.5640062124232541,0.5463447607761927,0.5301121610879589,0.5207065131512523,0.45725987289055503,0.3791598706569226,0.30453890673179007,0.24328088890546207,0.17096428660070595,0.13377336025042474,0.15491364634759552,0.21788735030060025,0.28557307483528316,0.36374731613519096,0.4419865181696463,0.5172736337365449,0.5782872385264732,0.6549874122420891,0.7170041344748221,0.6814952050018892,0.6352369617634923,0.5896813124999083,0.5631412973693024,0.5443316010274013,0.5290111841840979,0.5357027429374166,0.5555973671470045,0.5434908295135261,0.531883667470967,0.5061806916974785,0.4816416772771741,0.4621483436752727,0.4404402950381523,0.416945633309298,0.4372343171701889,0.46629498373961553,0.49967698467300536,0.5188415713271195,0.5209123696822218,0.5209135085841368,0.5205272366855622,0.5060973162266604,0.5141512108363244,0.5071384993900514,0.5109079931706795,0.49104069271037787,0.43859446090300347,0.39276187141648133,0.3693937898186941,HB
0.13193634277789767,0.14205151115698822,0.197089414306014,0.280399050968438,0.36531506904419864,0.4176587933393634,0.427051654313344,0.4286425177274924,0.4171346301964647,0.3857731004247178,0.32584955186760034,0.2659087596680001,0.19062486573370485,0.13247266673392843,0.0634302484814091,0.016885112753834974,0.0004874840352075971,0.00722282436009225,0.06608927460781944,0.1389957334152978,0.20076441749749518,0.26384895792147356,0.29366508463078667,0.32610731101329504,0.3809114585008895,0.3745221504321665,0.34407579872524385,0.3165151941099338,0.26729255384904427,0.1810798310060342,0.09286902448007739,0.019098513347095114,0.000899393018176653,0.0,0.00048491161364738744,0.02663222395372511,0.03552835525870046,0.012847158365024924,0.05240569580994192,0.13832036518712476,0.19317547323982165,0.18710768128162103,0.21809416320494845,0.2126158229434445,0.2708339360426337,0.335206326953585,0.37720261721561066,0.41146582323879155,0.42498282012239175,0.412010632525595,0.35536906721193384,0.3212194653170539,0.3163713009870741,0.34979813572610796,0.3793173281798081,0.40505807063833377,0.4542148489536282,0.4788931633538174,0.49071792867453645,0.4791161292480841,0.46870462400084856,0.4661791124188608,0.42788193581018596,0.39995175431313346,0.42907562697846924,0.4730298682144496,0.5444061591877434,0.6322055112271769,0.7173568291723416,0.7884796878885321,0.8750539105017885,0.9558719853171871,0.9363802144538242,0.8668902289318701,0.7810890446247765,0.6934415251955399,0.621475944495324,0.5715620473295941,0.5176032683942275,0.46550461997152626,0.43048348864616814,0.42596965418221844,0.43934105010807567,0.4307859508345371,0.4019466737920716,0.4049507492319231,0.400510654670287,0.3653228259938839,0.36026185362159335,0.31603324660939336,0.31425630390197234,0.3167773071553457,0.33518840550940476,0.37159073852057656,0.4200515276520189,0.44298768731120886,0.4387765775638517,0.41441882754467274,0.3716312410511131,0.3141914644456736,0.32935460064443367,0.3720118190581161,0.4029423818721418,0.4324374729165865,0.4677712813532535,0.5124813982968686,0.5340038821557047,0.5312724278771057,0.5541691213213871,0.5309047336479558,0.48687412570770894,0.4428105235101931,0.4244762150218766,0.47387254518824173,0.5311698122691646,0.5852271797823994,0.6709325060641889,0.7482033861991715,0.8257740556880542,0.9139118022836699,0.9944352982012203,1.0,0.9184170635950868,0.8318999695767859,0.7612802923172555,0.6973305220393775,0.6493198176978385,0.5701082280880652,0.5134323343560867,0.476361113385233,0.45664157602019895,0.4470744109992797,0.44687060833362224,0.4694759567963209,0.4652574294982599,0.4104353097517577,0.3850225185449365,0.36309773112410015,0.35728380378009517,0.35474717613478113,0.3584969482857199,0.36091503503267,0.39608187847580867,0.4345798465060948,0.4470023267593888,0.4313724873951932,0.38587987859988937,0.33650642871589254,0.2897763734786496,0.3119370554776095,0.31685871698574,0.3554951477487056,0.40481936053346557,0.45928448134447963,0.49225082610096926,0.5068235849708613,0.5244793009864348,0.5318563158489207,0.5447900366991898,0.49068594247697384,0.4433277473130026,0.4091197953946395,0.41192003932410604,0.47986161090817925,0.5557993815058011,0.6294171638911177,0.6890956863511359,0.7465170530106771,0.6919996900486298,0.6479967077367697,0.5856619733649029,0.5110927541293417,0.48017548362427753,0.4590138933013006,0.4395453121590265,0.423178531268944,0.42392727021839915,0.4380611402166985,0.4406558719778415,0.4025159494343553,0.3643396774083536,0.33542892579516925,0.33061169594154194,0.3158491067514948,0.34523778911907277,0.3379798107786911,0.36176503821953565,0.4221602413501353,0.4464793700306471,0.43366390742913463,0.382359981023193,0.3214120030899803,0.31599149873145516,0.29523927043867326,0.2928839854857799,0.3142631016988715,0.3681350839254067,0.41096318566766055,0.4465110506996277,0.4639144433369826,0.4607542453140998,0.4567485250683938,0.48546523524864416,0.501084119528036,0.45553993802039106,0.38671789854786454,0.36439665371156593,0.4078157827366282,0.444272348324954,0.5136606814988056,0.5936375725488157,0.6818652893859358,0.7688460746233323,0.8400009064600362,0.9207500305919063,0.98275061752223,0.9511017900412941,0.8636793063187889,0.7761939624122709,0.7054401648864967,0.6536064698468969,0.5968680801771296,0.5112420986869455,0.4604234641793483,0.4283462962720539,0.42410360432604444,0.4190219825450021,0.4240880170530499,0.41767908648106067,0.38661981828663583,0.38020458720881667,0.3632775609197343,0.31447784092923614,0.29896198309221944,0.30986937416993676,0.30004500243636745,0.34357593410333864,0.3855885736528277,0.4382526533110114,0.4412596735158778,0.4251917741470974,0.4458845951165742,0.41683506671079096,0.3902127645479405,0.3546139553405254,0.3224354874109929,0.2964229199338635,0.3385586538103169,0.4004644489689513,0.44836988149288004,0.4850362487877673,0.5202355817839872,0.5187676430340948,0.52938600956539,0.5539472589561258,HB
0.17673173738035075,0.17845994513046382,0.21959299328216275,0.29078965870437923,0.38378238797788544,0.4737811261816498,0.5382111865184225,0.6005007984279294,0.6438571908659307,0.6795758677861397,0.7429986577257468,0.7277573897863485,0.6653145315368016,0.5992589340329477,0.5670707591652286,0.49181514624956435,0.4288486619322418,0.36630610442176437,0.288553494116881,0.21449223922426963,0.15647467431915718,0.07775029195747152,0.029124869491958805,0.001866404475129535,0.0002944554622423823,0.016032512021645573,0.09092683279143987,0.17235258015404487,0.23509110708183112,0.3063140522093688,0.36934554651936136,0.3938646420568839,0.41835979305870996,0.4852940144558051,0.552473489036899,0.5596449265324868,0.5582318318821899,0.5326446768540798,0.4736829133350886,0.38055026803505854,0.28675551385552556,0.19296075967599524,0.0992208279975273,0.02112782762797938,0.0019653945422959396,1.6145216559237952e-06,0.0,0.0005656990243103621,0.034092755392203244,0.05717167905799503,0.026804734338929492,0.017890261662883766,0.08496367365550928,0.1664706538825893,0.21626481927990238,0.2627884562882752,0.23216972821189152,0.2351658355607844,0.2963890788472092,0.27916132198207144,0.30874965974378554,0.39868632723382635,0.48983734000616863,0.5322112155287675,0.5576979061906666,0.5826008039189539,0.6279084852286418,0.6900042422309722,0.7347058426019171,0.7612567917480746,0.7399047576828295,0.7170344047390271,0.7087269219821675,0.7317651300425014,0.7363784022316802,0.734651044320028,0.7099035000374778,0.6752186035145513,0.6131968701507446,0.5650418103513255,0.5264412371729179,0.45718796093753156,0.42231773732851874,0.4142818538253312,0.445999383138064,0.4993931398141651,0.5334419118114155,0.5707682655553423,0.5892062221046119,0.605576801774113,0.6189566775202904,0.6368971812340414,0.6015837650785807,0.5626987890459887,0.5669436616115213,0.6166807367942404,0.6865591266023969,0.7377321134576409,0.7739552441228987,0.7317128028806694,0.652750902443823,0.6037150746181279,0.5643073965141276,0.5596263055222872,0.5491004674338908,0.5260216674895446,0.5025230345711087,0.500791179504497,0.5122131553737699,0.5202595701279513,0.5011830127779504,0.5030686485115305,0.526766344386524,0.5393286468545089,0.533502473734762,0.5445857707349173,0.5616256268711206,0.585156318376443,0.5923104514953179,0.6164791108128558,0.5984065628610065,0.5680199641874388,0.5447706684655804,0.49851449612356813,0.44496649640312746,0.4037485693635965,0.35290850370029236,0.33377921751937123,0.35550721831865495,0.39407233715487955,0.4560778809195636,0.5198991378122244,0.584396797549017,0.6231827368662275,0.6767345448426845,0.7066467421454616,0.6974013866140156,0.6778483328823626,0.6631598180829812,0.6185424090370661,0.5828447845848475,0.5725700969178504,0.5904297627859423,0.6225614086958657,0.6667071787155754,0.631358167881495,0.5727819928144475,0.5139614634716478,0.5007812865331527,0.5007333965745264,0.49438754583214983,0.47217819746740286,0.46876010685533576,0.4445634859110754,0.4291530375433341,0.42194874784854086,0.4613328786987507,0.4752758200639571,0.519532146306382,0.5825460419657311,0.6064371163159041,0.6185515477359962,0.6303130140571263,0.6749295181603836,0.7117633534749119,0.7343001074423174,0.7130929966762283,0.7172548202868185,0.7155451103318873,0.6700680600732598,0.6361313136192432,0.6035832853811511,0.556910467390697,0.4975253528569201,0.47185141324480284,0.471283986517844,0.4716669910845708,0.49283003705241324,0.5384084643392439,0.563801776432288,0.5876805751540051,0.5891002169555817,0.5833714489855772,0.5608523354275645,0.559715910742935,0.574485295188337,0.6367118063857706,0.7172912652145458,0.7047282190079471,0.645469689174285,0.6003297560269605,0.5891467332050038,0.5843224577260866,0.5613267823322792,0.5596501311725834,0.5596498216796135,0.5609709471537423,0.5836359493000876,0.597820624343119,0.6474244732588685,0.6988716323876671,0.7294296491560317,0.7513733515063175,0.7823169929226372,0.7956975939408109,0.8161648928453094,0.8466343941518559,0.8597965595043169,0.8824952894378191,0.8780601337836833,0.8487592783402782,0.8174300413596329,0.7761077366978544,0.7410980593388317,0.6906117108466425,0.6502451870078261,0.6612818862268703,0.6619376596504027,0.7065321803942153,0.7513721992882418,0.7749391498823694,0.8252591835156373,0.8755646828038115,0.8848990407417006,0.9066354122967581,0.8911508410317976,0.8948050855264409,0.8517554035129935,0.8254748510182139,0.839254335735669,0.856602382418191,0.9096203835966366,0.982168060181583,1.0,0.9232098138407583,0.8732719750662561,0.8319456816307724,0.8247631363915939,0.8247469764062263,0.8247454702071106,0.8208882388186156,0.7924586341539772,0.7672693239330997,0.7490800850836079,0.7364401470087829,0.7378149032167807,0.7679264664490724,0.8121325923603839,0.8252407768772478,0.8467865951318041,0.8738463927564695,0.8585458725357169,0.8789950375730982,0.8836545654870482,0.883657474720958,HB
0.3416385709840686,0.3456123649112124,0.32934501010674566,0.3158278124331044,0.2986822310781352,0.26875525132353095,0.23655553135019636,0.1997381477427136,0.20101350436189147,0.21382974670143806,0.24078786120431905,0.26298378214493523,0.280986035383449,0.3063231690009762,0.3054567010691729,0.3029679469143276,0.3093517798332588,0.2970754093079777,0.2850692914454891,0.27367814919792766,0.26025461816549766,0.2537847593320084,0.22410474179327222,0.19078350920716858,0.15746112949348667,0.12475192953275993,0.10111685017947769,0.09303183346656363,0.11079212572620101,0.129901201618579,0.15482627289926443,0.17985225284157424,0.19644970634410486,0.2040298469067645,0.20469447233299354,0.22458857288824108,0.2682734730830325,0.31833789556309355,0.36874011784514416,0.42505063440376967,0.4824519981288877,0.5396781039626086,0.5962349133752802,0.6543055735214467,0.7100195764302213,0.7691365077889598,0.8292440607293536,0.8826253913976609,0.9330947668378462,0.9644436747002598,0.9388017155013522,0.8943909332622324,0.8390204881161121,0.7859455807608993,0.7265595797308229,0.6764504051558733,0.6337672867552038,0.5904732005525704,0.540459953123396,0.4958894436819534,0.450237981650524,0.40019167346991,0.3448321631356843,0.29210168337649955,0.2410464060842381,0.20582237954131966,0.2040921787197547,0.20427532800262949,0.21754960290056902,0.25749798990947204,0.2844323837976135,0.29613919841861636,0.2779550172767191,0.2522213324792659,0.22053382727644477,0.18718589991809642,0.1494408267706735,0.10580278357325046,0.07121102234019139,0.025729651813653387,0.0,0.008004621106445953,0.011612884404301305,0.03280462170733456,0.05037001951461706,0.07250908331417039,0.09946026341763536,0.12315393361080451,0.1453313290150171,0.16467012921153756,0.17726952166153165,0.18648598212683298,0.2090918143048608,0.25405771957734924,0.3092350007128206,0.36429712492108735,0.43066866005993276,0.49186845856154093,0.5458063851893158,0.6096876263122635,0.6614898102802118,0.7237564712866074,0.7754887238009416,0.8271675223213202,0.8651490167339464,0.8595541033493324,0.818529953515641,0.7735677208770224,0.7152599682365186,0.663665819074466,0.5989939890472997,0.5443985113871666,0.5084053283919929,0.4686706693619529,0.4444668502733333,0.4059056838534447,0.3557105976524859,0.3018372330417378,0.2566895663753903,0.2554935270034018,0.24531102794795956,0.24128307429695273,0.24077161338758346,0.22647041552960712,0.2003455586136571,0.17179333595726076,0.14092934464444662,0.10928860154845221,0.08563091792715527,0.10166809808260613,0.1266972354740985,0.16226816886438344,0.17985276687807028,0.19107911789076537,0.19790398329831982,0.17724493683514098,0.15991762504576856,0.13264930392193808,0.1052409373243437,0.07778699191354654,0.07443619600591767,0.08830958328855365,0.10757184479329984,0.13357325695052769,0.15143825720969017,0.1772327711376147,0.18952120655980265,0.20343879602199655,0.20883926543262143,0.2305393901123911,0.2635318609489148,0.30812975032631584,0.35822066627943894,0.4134070058976955,0.46643652778829026,0.5324805977568627,0.5989444288611154,0.6546222713320096,0.7126269559401539,0.7644514164360787,0.8237738261825025,0.8762119947707863,0.9203378729132763,0.9231789301217952,0.8854994855415104,0.8352401864739125,0.7805767027278998,0.7233103958153331,0.6618360069268521,0.6083500654814191,0.5484419709323776,0.507757418163092,0.4584741654223756,0.4186664867930605,0.38757524504250895,0.34344269255171955,0.29166146397420123,0.2406604914112629,0.20577235613024802,0.20409210804315459,0.2040918101917688,0.20407290329935757,0.19762098395576988,0.17061873422293905,0.14351295143829867,0.1102817775941709,0.07712339764301923,0.06618549288061093,0.09615426857649512,0.12062077307963959,0.14507005824051733,0.17108408246742934,0.19341327105372352,0.2152899099431922,0.226891873921804,0.2406483661517198,0.24127962793949065,0.23959580872477293,0.22454979480474746,0.2165560855868165,0.1859136896914073,0.14538166178121337,0.12063816635781999,0.11119379835778886,0.11481313373694668,0.13503766679125873,0.1573847760093008,0.18169468138035771,0.2078283121456761,0.22313887985082514,0.23824886752580188,0.24251321743190024,0.26381192117465657,0.2939724683088252,0.34267616707347104,0.39285497427892757,0.4515381249123793,0.5181155534476694,0.5845067606526282,0.6389123152481662,0.6823590216863109,0.7260328732946726,0.7777106389350865,0.8348143739731979,0.8916866841925652,0.9485629192978382,0.9948315763253874,1.0,0.9633178704463168,0.9085345557333651,0.8562182817840474,0.79177957742984,0.7399642095646972,0.6774545226020243,0.6259885268088059,0.5723904769470596,0.5278818998868213,0.48798319677848667,0.45113535343425815,0.4068197693368423,0.3588250840847458,0.30923418656738866,0.2595313851196246,0.2272748218795817,0.23747244458364403,0.22206466324302498,0.20786983866978037,0.23127605412769325,0.2638837659883366,0.28296055644464824,0.2917560516820723,0.27140300682403495,0.2495529436892725,0.24129010611884638,0.2364326181877754,HB
0.7283608801424588,0.7085669397275498,0.6742169736007941,0.6409712347007028,0.6095014983723166,0.612818205578515,0.6478268283667585,0.6837301001590119,0.7062117077146839,0.7470700655526255,0.7790436622884918,0.7934053607854139,0.8039656656714742,0.7819904241089968,0.7228853514586193,0.6627417887612039,0.6026320164199666,0.5535256285932184,0.5459205467997004,0.5295567966134449,0.4628056151210149,0.3828284337791188,0.3027674482986358,0.22302476624909495,0.16690048070585117,0.15643952964896357,0.15605841701016088,0.15646193102624428,0.18019910325071065,0.19287879389730023,0.16970737686477744,0.19040511975224117,0.2618162368999024,0.3086693742439186,0.3435809142480082,0.31759823798531217,0.3496211513261107,0.36303010872069663,0.37284691035945183,0.43733729539712307,0.4836404744366658,0.4960263681660799,0.4591735722586212,0.4934067806950986,0.5634759946696777,0.6277135789121195,0.7040341533366221,0.7585028765614714,0.7935967770894208,0.8379418604813851,0.8510029786622546,0.8264323131100797,0.8132963139166538,0.7808350170122478,0.7439163406618654,0.7000857866754018,0.6671323181623436,0.6244216966640006,0.6033117450511583,0.5853453171434881,0.5461930775198884,0.5540205993362943,0.5470336693559541,0.5385422337967483,0.5479349166365748,0.5956029902283562,0.6379452193639659,0.6483525564434469,0.6843306840026906,0.7080943925390586,0.7202993184396331,0.760232422637523,0.7522697272445233,0.731149303405783,0.6944540979488334,0.6628814565207302,0.6528660361835579,0.6663718088688069,0.689547469103728,0.7377578495276129,0.7771997129424477,0.788153819651777,0.7840730519096559,0.7892107414705283,0.7469136312119646,0.6873242963029571,0.632429668335571,0.5722404508835819,0.5002997205856823,0.4361443394860749,0.3775213685883334,0.37648186764214797,0.4292895248186799,0.49750470420339665,0.5704780461467953,0.6360360762263797,0.6959404695155222,0.7392050187193822,0.7838981029166874,0.8049124185079211,0.8145589513654734,0.8146158159077959,0.8089074393122382,0.787624811658187,0.7462473433679029,0.7390363160155569,0.7368775242425052,0.7003304787521758,0.6832275704320687,0.6668944886659962,0.6697364223977313,0.7021019676031033,0.7464904689833105,0.7991875723028556,0.8336081877654391,0.852556691984792,0.8890085281499953,0.912115629334969,0.9413834763447415,0.9750333167568459,1.0,0.9768752903476337,0.9284535917902921,0.8752155183421686,0.8203907353427824,0.7600659045459492,0.687471301287542,0.6263027905690572,0.5691017333267405,0.508033772085315,0.4439989905635797,0.37831260903273023,0.3240244506093184,0.2710851558284251,0.24253629814851863,0.26087768707924885,0.29220710877726486,0.3251537126021069,0.36008071004360653,0.4030210870130255,0.3913208363355749,0.3335747624510521,0.25682618385079303,0.1934711670492062,0.11709494770538731,0.053473049583986576,0.00020940341359665382,0.0,0.05724821907935329,0.12304726559749746,0.1951656492893168,0.25889518848764936,0.3175496377929661,0.36619597991115427,0.4312656981142573,0.4987551950363365,0.5486050864398702,0.5920783341950955,0.6448743861942363,0.682746092623848,0.6933143044249124,0.7234309716426366,0.747239067076062,0.7788878732221449,0.8091554197156428,0.7932656337370254,0.7653319962284,0.7327031027287445,0.6846268292103015,0.6385051877827563,0.5963843771853803,0.5439323077614691,0.4976221954051776,0.4755022831261235,0.46722169441384276,0.4396555775093871,0.4007549842138909,0.3579105801299871,0.32619501519533856,0.30892864228644745,0.32186134142655254,0.371407503253149,0.4247332918848663,0.47796297784070907,0.5251423484380626,0.5776825691000633,0.6233499534922706,0.644207268730224,0.6563755680128414,0.6887410075119105,0.7239478153431014,0.7555509794103705,0.794397678897306,0.8035030130731151,0.7959691885731139,0.816543273564418,0.8024536030403473,0.754211181998865,0.6895578003913649,0.6344375795154487,0.5616038790010469,0.49044413116252095,0.4786501995832664,0.5301198627507189,0.5949469849716462,0.6689649199341119,0.7353339768583482,0.7826137982199972,0.8141091111382024,0.8327742487203595,0.8158161780483826,0.7989850189107068,0.7778403028290621,0.7384891989637619,0.6982254880534375,0.6868626453812268,0.6710572290025145,0.6345015116050003,0.6113326265135486,0.6022673455085115,0.602306269534814,0.6146716915967554,0.6581247236545744,0.6924888380257799,0.7276733250285305,0.7490732887538898,0.7511974035105244,0.7647172223268415,0.7722499389954782,0.7819113251132408,0.7669178551269096,0.7334825645750662,0.7083116391786484,0.6940286574690924,0.7084655600745631,0.7321962736378635,0.7726300822928693,0.810699348170715,0.8360459776222986,0.8658644289092519,0.8754803234075501,0.8312334743408281,0.7685842803122149,0.7089679211181008,0.6496454767360555,0.5863061738352884,0.5129576563033265,0.4508063955364019,0.41641499709807217,0.45648540590309805,0.5322497699314801,0.597085305708505,0.6715425426590271,0.7337946441154042,0.7677732579133978,HB
0.8827472663835869,0.8991121987452599,0.8824876316616517,0.8455130531905621,0.813204437147979,0.7881807078041017,0.7392502604042148,0.6888675887366627,0.6323845181468593,0.5931755918725048,0.5500117316562525,0.46841930012594446,0.3774874593797022,0.3094778641143838,0.2973871058587596,0.2983802296859035,0.3215997009807432,0.3144854759903404,0.33466586355908,0.4025747579881038,0.44336887180947526,0.4527809335884845,0.46380755135896345,0.5143514652278176,0.5904314074334756,0.6338399560680945,0.6571267813126496,0.6003098598786596,0.5201547094905123,0.4625252280809513,0.4038531683133577,0.3369971773292195,0.33750715186929225,0.39653528420335515,0.4648277480683163,0.5280674614904939,0.6048995737625815,0.6754368131755863,0.7363133844364782,0.761229793125644,0.7070799689558642,0.6247067689510306,0.5336335300725361,0.4506489298475973,0.3676740673200154,0.2766031106166973,0.1938571099899411,0.11324450235144745,0.06638013477227078,0.10980278749513905,0.1866387940079779,0.2744392620700067,0.3526731862640622,0.4420626276091353,0.5334230516060794,0.6246410978371126,0.7073881560128705,0.788907312545752,0.8303314256669907,0.8228511609801856,0.7845155573017895,0.7896220729791552,0.7623938392251453,0.7352526558143238,0.6859897167675579,0.6587582472970421,0.6116420033315104,0.5828927427451513,0.5539880013848051,0.5581500939736879,0.5963146823893459,0.6145288433673337,0.5650187827371527,0.5166318084687163,0.45492665186724146,0.3822994589087698,0.3216944966182411,0.289686844743676,0.34013123185517147,0.4072435227096691,0.4848952485392579,0.5416480566796582,0.6195343815129934,0.6973407443844977,0.7439157228036275,0.7164454069386079,0.644797030091302,0.5633000995079027,0.47294819698987567,0.39380381935616393,0.3065037152346348,0.21704386603089532,0.1388334380015399,0.05135454994745503,0.0,0.038598801845066255,0.11419974776585251,0.2011470351949276,0.2834565056958356,0.3671031801982845,0.45775105855431786,0.5374435921465417,0.6240708983315595,0.7153921468706748,0.7991914871954604,0.825663952533132,0.8459339083971313,0.8448410004706619,0.7953012355073841,0.7839817693991997,0.7891556035428122,0.7529703529567033,0.7143188472944138,0.6932847117474736,0.674928899532806,0.696296224068135,0.7040752270301884,0.6747296109750094,0.6095566098880227,0.5460251678621089,0.4727368306019448,0.4412922622259563,0.48356869625190013,0.5421462103884642,0.6157243411200168,0.6943879972267912,0.7707483327883979,0.8426119828018526,0.8977688295009316,0.9146912195129207,0.8675779278326083,0.7869584887968686,0.6958982755217975,0.6045352129485693,0.5132225157370272,0.42825295582706824,0.37456981839288295,0.40198045945625926,0.47431502293639705,0.5616060455636958,0.6434956835386676,0.7275868242700123,0.8181497062941068,0.8975364605692824,0.979328789691996,1.0,0.9815192611370924,0.9687744033048657,0.9552280349831679,0.9288050992286814,0.8973691827220498,0.8503957574947174,0.7971415995483602,0.7516277942992291,0.7414211235384172,0.7595007486043013,0.7464802310942069,0.683843402806513,0.6081713677596401,0.5373794482885623,0.46633071450664776,0.398988279269195,0.3569194063483825,0.3836592589525263,0.44831242708132235,0.5223876816965385,0.592129460615118,0.6684939755752097,0.7470610288905775,0.819080688677269,0.8583382734996041,0.8762736840482246,0.807679369477107,0.7166780373119654,0.6344454111293252,0.5506942666136299,0.4594395987034785,0.37001399432247206,0.29378747384493487,0.26096552128935135,0.32151301421774914,0.410769964779067,0.49224911488710177,0.576798259924951,0.6672626075394983,0.7463587307012607,0.8330713514484702,0.8988237078194121,0.9041940579592405,0.8913874690531198,0.8723867841964892,0.8528881967561355,0.8210404898408221,0.7736211273478699,0.7313372880471238,0.6830557531809966,0.6568527731459222,0.6688031907397733,0.6644229669084978,0.610096904008242,0.5373060696908074,0.4672041889906482,0.39512604971818455,0.3269940143979606,0.2893445555269758,0.3267557362908984,0.3932849422446423,0.45924965947592433,0.5347180351920486,0.6109712116684678,0.6844496063005296,0.7555636847656588,0.7956920166063846,0.8348302837761414,0.7922684646362503,0.7132657659253501,0.6225144852669251,0.532442486044121,0.45394231704087007,0.36546718421292423,0.2770761081861379,0.21168863817023142,0.22041551306621443,0.29482459300762454,0.38528551047408577,0.4654918516135824,0.5514373520485147,0.6426033995013096,0.7251995112399725,0.8078014908079769,0.8618989964283763,0.875772667140307,0.8873236134781686,0.8646890097203199,0.8526144164101965,0.8181468846908033,0.7793414567427623,0.7364461277516074,0.6881426342608719,0.6580869347182046,0.6699461142340768,0.6863466513696435,0.6579480105048843,0.5792775090392697,0.5079147377230258,0.4385568906532691,0.3670786048061254,0.32150924332882,0.34800926543611155,0.4101043689783497,0.48507894489207715,0.5561976760471041,0.6351841064285502,0.7112888206019168,0.7757453992025014,HB
0.2621061755277272,0.2636253462446301,0.2972393952265291,0.28399012287338143,0.24852390535732471,0.23644542805091406,0.26900227141159094,0.33054244671285593,0.4112046519354089,0.47392429122414015,0.5515390081237488,0.61347547120267,0.6832580730496067,0.7470980491366932,0.8111339202788024,0.8678548251882141,0.906290320727531,0.9454443924876008,0.9283330403783285,0.8969543935502271,0.8685736503569297,0.8397262359722752,0.8142324217313366,0.7919562008595342,0.7972459686744768,0.8363246539178011,0.8145821811863847,0.7905640524013213,0.8093324285115777,0.8156695763693875,0.8224581057247518,0.8413537200405727,0.8355084980956393,0.7998465438328255,0.7864630546487978,0.7643527099996987,0.7428100841844492,0.7452324122172547,0.7627220633592318,0.775287452809696,0.8155235645461145,0.8410935218757665,0.8499714857714062,0.8708319551751273,0.885774271416798,0.8660613395838244,0.8434188530290951,0.8097616939478272,0.783624468410566,0.7415618572125409,0.70234305778982,0.6526347681098628,0.582604330771817,0.5147210195277108,0.45328540917279003,0.39560515434521104,0.3150317164295533,0.23488391603493142,0.17192758339145353,0.09002888993421765,0.02307181195896124,0.0,0.03357092644962467,0.09554625645642734,0.16269257745788046,0.2357112774399459,0.300759289457063,0.37747534083709855,0.46130145894667063,0.5451044019032256,0.6206582860729579,0.6862437296413244,0.7467366242401114,0.7973695786186097,0.8371951498923336,0.8420125349602188,0.8420086709195465,0.8350324147319519,0.8157353766191742,0.7971262715215071,0.7765915781587651,0.7408093580890398,0.6991573603852226,0.6671209905916813,0.639766972165261,0.6314537486789238,0.6468523724084188,0.6602028743979815,0.6920951095349634,0.7217796209238401,0.7496785798655132,0.769994818949101,0.804966953325799,0.7992803420954111,0.7661353645129889,0.7538037426184232,0.7330717899276928,0.7119193342204282,0.7102618411756163,0.7202001420514508,0.7487690256006143,0.7739017047711041,0.769979306949069,0.7890366122502748,0.8072277521462521,0.8138127883853024,0.7915152851347029,0.7704775586780555,0.7581914371820444,0.7376912835680107,0.7210947022247485,0.7018012387707424,0.6661593942764634,0.6575249634533673,0.6521501235007428,0.6097968695023344,0.5307673423777066,0.46417156744539145,0.3892926673277093,0.31751096196915896,0.24903171742009667,0.1949725713971482,0.1871682217308357,0.22638040332824927,0.28407687394856707,0.3609939012025358,0.423423390516116,0.5046115131593352,0.5838952072825396,0.6454888193115975,0.7054669195189938,0.7526827698918872,0.7563526985688247,0.7368145054702042,0.7186636296807549,0.7061813092514706,0.6843505776289494,0.6561369427992547,0.6350215056035591,0.657111802906682,0.678637870190224,0.6793387933064237,0.6588824737866128,0.6573330838256677,0.6406734930366511,0.6103748077405111,0.5805845592914318,0.5734604702055881,0.5559397266714567,0.5749587210055953,0.54651996418258,0.5276144478609233,0.5545945670149921,0.58026678428089,0.6147827101994183,0.6665588757894545,0.6962569963046921,0.7258149957425788,0.7664125611526398,0.7914908589577596,0.8236845424029067,0.8311773593232097,0.7923835648233464,0.8031061409147737,0.7936135367519981,0.767763797498187,0.7821616096572122,0.7688229453864244,0.7242874079796815,0.6677689489550964,0.6041190536727417,0.5480484764318581,0.4754645343839048,0.4101079542586059,0.35851616097876615,0.34976729299699993,0.39701044258076523,0.4593951950993018,0.5362526406525046,0.6200565251524219,0.6966982351598219,0.759363438985063,0.8172749335860452,0.8459601007481705,0.8865675504325514,0.9418165296616721,0.9552766125105707,0.9810064216711583,0.969772058773545,0.9387418598084238,0.9028604662700923,0.8901395677988226,0.8684403834628265,0.8392153373360136,0.8003216212979023,0.8005693939561995,0.791464516657201,0.819529757780086,0.8258158083654328,0.7933678858761946,0.8212840999101969,0.8421277025454375,0.8591071507540224,0.8995560779978824,0.9056597140079008,0.8985697119003477,0.9167748199238996,0.8967741531186704,0.8821501738412687,0.8671843870780513,0.8455517575169518,0.8536778926838382,0.8685012481910546,0.8901605574769391,0.9191801174812726,0.8989029307691201,0.8954555241768007,0.9060774590319127,0.8950100608237292,0.8762091669234993,0.806323588724327,0.7422902614648397,0.6674761775386804,0.6012596046657253,0.5179428030859645,0.44719633522184044,0.37656832704624676,0.31119013401031204,0.29013546492739684,0.31768719701180714,0.3726972763537004,0.4429969934394933,0.5050469681566758,0.5868969553894186,0.6707123610950854,0.7478720697462737,0.8047596441200202,0.8601884709127807,0.8937523184084348,0.9199916319942067,0.960113139747528,0.9809679664875102,0.9996100344856904,1.0,0.9829869606861319,0.9428379889726806,0.8857606197120962,0.8545741595012926,0.8201372896772394,0.7923698316506238,0.7630063568393206,0.7435500564290809,0.7120461966697373,0.6852360408217004,0.6919826171052463,HB
0.36951655156759444,0.3107301331066177,0.24757500517090003,0.17685640859902607,0.10695948057759397,0.05044353449722783,0.032766636280725514,0.08673633489096755,0.15745372637086685,0.22829977670924895,0.29724911527272324,0.35639206226911124,0.4258534081154324,0.4938602279576165,0.542311328215288,0.608432112795144,0.6788905676635468,0.7396614449318952,0.7914486004957406,0.8472015229631848,0.9172403775435733,0.9651993550679094,0.9771743470368945,0.9695691953877628,0.9554572856009225,0.9537134892528272,0.9432486848781334,0.9294543309699841,0.9307090240794085,0.9279216179480811,0.9242319565909756,0.9320520909725638,0.9488373824760017,0.9492177848575882,0.939459751911373,0.9389233393228182,0.9295533825676077,0.9055986738734414,0.8659106078289329,0.8442624074383818,0.8464586353072874,0.8618339339438852,0.9065261223856389,0.957292106639362,0.9838359993042305,0.9993869232974215,1.0,0.9426183839882407,0.8740638314814428,0.8147367340556291,0.7451439269569851,0.679248337903744,0.6180623655397128,0.5475634932272064,0.4768160602217706,0.41359026627540363,0.3499032567348159,0.27916091814066646,0.20831204563699135,0.13773666664671347,0.07741794025634263,0.03389439766779323,0.015586329744144534,0.055165734163294955,0.12189502237915528,0.1927311732606638,0.2634419710768072,0.3264252321176575,0.390361152534656,0.46113374834720355,0.5319826208508789,0.6027433582321993,0.6668408877309662,0.7296753193867547,0.8003851959374191,0.8709433203590797,0.9322075210530447,0.9782811816987471,0.9832912790739607,0.9664676219891959,0.9492199151157159,0.9394160459559311,0.9373822534301262,0.9252517355436409,0.9147113158223026,0.9153404131546989,0.9174395743656802,0.9361940653621392,0.9418724926876383,0.9435808848552725,0.9391175569423895,0.939000363439082,0.9294669242560243,0.8968499313994487,0.8615396863041278,0.8365114645631269,0.8353933288810222,0.8565095405798058,0.8956060249364097,0.9395908291769,0.9704351153723372,0.9849474329563264,0.9887454646024976,0.9332070597291295,0.8687299203251864,0.8063917620757608,0.7357098766394574,0.6648610041357816,0.5940121316321054,0.5231632591284292,0.4531896024149509,0.3935758882438354,0.3256038954826095,0.25476068404189034,0.18415811164771467,0.12236581078828279,0.05756986855927804,0.005920666628445481,0.017735947464600832,0.07574611695028377,0.14628202702798587,0.2158395334556953,0.27513392916304835,0.34383822553035603,0.4146851099423048,0.485533982445979,0.5563828549496552,0.6270594835896248,0.6892803504224272,0.7539940721147467,0.8247854300361959,0.895474703644068,0.9558595987208842,0.9734073136899033,0.9634137908429934,0.9464108196615939,0.9321964062945245,0.9236692842904102,0.911705790533325,0.8963765467466187,0.8941096950497185,0.894935546107336,0.9122410109231347,0.9252538994906963,0.9427779747561242,0.9393745784868099,0.9261916362385869,0.9240304047590087,0.9140842465184229,0.8781230228148913,0.8494255680325757,0.8279830887530002,0.8235972882459448,0.8468698992596617,0.8832225775649349,0.9252492096440874,0.95435284923497,0.969100420031721,0.9832541632267326,0.9446012735974474,0.8827955797795877,0.813019560690881,0.7534058465197653,0.68543385375854,0.6145925007513919,0.5457930926781502,0.4865313986892601,0.41703639949264026,0.34618806723128137,0.2760641513682254,0.2162086224667208,0.1486255239630574,0.07786349433179174,0.02022023749194446,0.0328969849380889,0.09073249890539348,0.1557401524128732,0.2265387265300527,0.2973875990337289,0.36823647153740446,0.4387184146758676,0.49981994098379,0.565814494202129,0.636639046623944,0.7074877246403859,0.7776494676352943,0.8374493848915661,0.905046928733988,0.9723070088791679,0.9898019933999072,0.9736448407087734,0.9652288049021949,0.9532401996498976,0.9444028721505249,0.948268099705389,0.929884548466732,0.936824964133327,0.9321042210164197,0.9389729460360208,0.9483353933468983,0.9600222294875906,0.9633471792657535,0.9552947308217434,0.9527245595708256,0.939917938451333,0.9170647939795384,0.880798699342205,0.8373472011207075,0.8199894212997556,0.8313175497758509,0.8591181848520777,0.9012134386488744,0.9415819782377417,0.9715686172958664,0.9908228183246179,0.999252287907844,0.9526019278211444,0.8922181945933363,0.8230080462612177,0.7638128773983954,0.6951371956595507,0.6248065340437283,0.5645444768928778,0.4975695254435948,0.4267382376296496,0.3558893651259769,0.28535654043351877,0.22422514770342605,0.15830621099030506,0.08750389392556612,0.022562903154660585,0.0,0.04556436505865791,0.1160027262753569,0.1868515987790329,0.2577004712827091,0.32834324157458705,0.39035287032956334,0.45530591549121135,0.5261030463692467,0.5969519188729224,0.6677961523168006,0.7361199895668351,0.7955160704806019,0.8653542670576897,0.9343687533418636,0.9676601474645268,0.9604203339945143,0.9495087193957277,0.9456383693617934,0.9402728293648188,0.9307478769977795,0.9241716929588284,0.9240914430309739,0.9240914430309739,HB
