0,1,2,3,4,5,6,7,8,9,10,11,12,13,14,15,16,17,18,19,20,21,22,23,24,25,26,27,28,29,30,31,32,33,34,35,36,37,38,39,40,41,42,43,44,45,46,47,48,49,50,51,52,53,54,55,56,57,58,59,60,61,62,63,64,65,66,67,68,69,70,71,72,73,74,75,76,77,78,79,80,81,82,83,84,85,86,87,88,89,90,91,92,93,94,95,96,97,98,99,100,101,102,103,104,105,106,107,108,109,110,111,112,113,114,115,116,117,118,119,120,121,122,123,124,125,126,127,128,129,130,131,132,133,134,135,136,137,138,139,140,141,142,143,144,145,146,147,148,149,150,151,152,153,154,155,156,157,158,159,160,161,162,163,164,165,166,167,168,169,170,171,172,173,174,175,176,177,178,179,180,181,182,183,184,185,186,187,188,189,190,191,192,193,194,195,196,197,198,199,200,201,202,203,204,205,206,207,208,209,210,211,212,213,214,215,216,217,218,219,220,221,222,223,224,225,226,227,228,229,230,231,232,233,234,235,236,237,238,239,240,241,242,243,244,245,246,247,248,249,250,251,252,253,254,Target
0.0,0.036526675885578036,0.07257000300545488,0.1107012841743662,0.1503062343922107,0.18981198407195318,0.2263866709814014,0.26388670936112285,0.30347160377050486,0.3430879945189566,0.38270438526740824,0.42232077601585993,0.4619371667643117,0.5015535575127634,0.5411699482612151,0.5807863390096668,0.6204027297581185,0.6600191205065703,0.699578184377011,0.7366340801491537,0.773630071908314,0.8128671583244178,0.8485131647866797,0.8826644835660684,0.9076454764980784,0.91188946049416,0.9162946650274421,0.9239388271998533,0.9382987701537441,0.9559546993649642,0.9655349212238166,0.947727200865571,0.9205952693063083,0.8919876101385892,0.8680063695675329,0.8594685189913212,0.8637124920570456,0.870237472902434,0.8793841199009148,0.8758232089396131,0.8592816163542298,0.8581619299824207,0.8764934762258888,0.8867123161590053,0.8995316675789322,0.9000881305702136,0.885161070333897,0.8776589208431376,0.8919484664493802,0.8966901470721585,0.8881700485882625,0.8800775593696004,0.8743476427168508,0.8834888277440316,0.9117838054407001,0.9406103100852913,0.9661011910476562,0.983976695208846,0.982471066863946,0.9653456758366593,0.9479598431418309,0.9376994351164043,0.9284579251769361,0.928001218790231,0.9218605011931278,0.8996924764145062,0.862836480608773,0.8271924621284805,0.7886242293104476,0.7528390173413422,0.7143046351260401,0.674693397457466,0.6350793950075531,0.5962409443007984,0.5605688207537284,0.5215269781558951,0.4819116428971882,0.4422952521487362,0.4026788614002845,0.36306247065183267,0.3236571110756715,0.2995008989831741,0.32317801458718076,0.3596849248002813,0.3992077505634581,0.43882414131190983,0.478439704459751,0.5175179671738072,0.5531966687552913,0.5919922469764928,0.6316058958721879,0.6712218783034407,0.7104664943739109,0.746259564826542,0.7847764200213436,0.8243595926440014,0.8619319793365593,0.8979670383359882,0.9290528748634448,0.9567854674824582,0.9529576712230322,0.9234482947184596,0.9029746160825803,0.892398299612335,0.8814022588006919,0.8809586227953371,0.8937350146181533,0.8936485652296076,0.8811200861879751,0.8752483981704928,0.8740056266512775,0.8864974699299042,0.9143594821590046,0.9437854560930561,0.973092553033503,0.9951836781672778,1.0000000000000002,0.9842871252799388,0.9669571797139156,0.9499660630292599,0.9390338149123868,0.9380565520467522,0.9348035141044524,0.9196270196659457,0.8905637370133153,0.8560357972646347,0.8173441526516251,0.7804404510486178,0.7432983140298248,0.7037301749367872,0.6641244246985536,0.6259878162438182,0.5899481804196859,0.5505647036679253,0.5109484203765092,0.471332029628058,0.4317156388796062,0.39209924813115443,0.35248285738270263,0.3128664666342507,0.27325007588579886,0.2336336851373471,0.1940173198010321,0.1548760524565881,0.1385114424510797,0.1710350787214128,0.21062292887073122,0.24956875479852259,0.2852253891661596,0.3241750144235319,0.36378994897092864,0.4034056567617769,0.44252819665750137,0.47823276179205254,0.5169584831860781,0.5565717035312059,0.5961880942796577,0.6357160507968683,0.6724428866524855,0.709777146504874,0.7493534580914842,0.7889697446098383,0.8283567863793123,0.8644037620791111,0.9025268189671101,0.9412414860408455,0.9749943125391359,0.9856803923850566,0.9585289623684288,0.9262166453016548,0.9095367513373736,0.9023204560186353,0.886707229678597,0.8892344636485388,0.9028411726576179,0.9034620340715763,0.8937222606202359,0.8836006235957788,0.8767504915249664,0.8851884183520712,0.9115420787638774,0.9397392605161048,0.9679412025563675,0.9888649317315874,0.9895843396155319,0.9740741015842767,0.9589649632868469,0.9456884673592427,0.9390314771049894,0.9349636017862175,0.925262415740821,0.8979512265758594,0.8631513438358934,0.8272775427937668,0.7893488829878405,0.7497486461829331,0.7104578130862026,0.674592845537835,0.6361929789037404,0.5965830110814518,0.5569666203330002,0.5173502295845483,0.47776544030694085,0.44029662756644405,0.4036999461054142,0.3641848657727229,0.3245684750242711,0.28495208427581925,0.2453360154374125,0.206098842615158,0.17563448211748442,0.18932695801691662,0.22820890084783624,0.26782516613483054,0.30744155688328245,0.34705763315000776,0.3863314149911577,0.42216726834982404,0.4605845961065098,0.49714453293850785,0.5297363814911653,0.5688560047143644,0.6084720853249538,0.6480884760734056,0.6877048668218575,0.7272743379339834,0.7644303688329821,0.8013230474959593,0.8408702306336839,0.8804425528424145,0.917661328399922,0.9539832315199898,0.9804327692092913,0.9716794406404713,0.9407123722772984,0.913916561626849,0.9035738128383445,0.892690251125599,0.8831783434093226,0.8965022023457104,0.9025472887509512,0.8955207132118168,0.8864679358625623,0.878110880769171,0.8785694351158339,0.9015350926803062,0.9296317510221228,0.9564614113110946,0.9764265076424922,0.979100863705603,0.9657582233316513,0.9460744979728821,0.9321518821546093,0.9245963352505628,0.922207441969388,HB
0.7878506658018241,0.8229488103769258,0.8106232759762473,0.7345413723889609,0.6337680479538197,0.5298734253716819,0.4332118516698882,0.3301786306041927,0.22539378240675623,0.12704345197767664,0.039736701652837825,0.045021595446934404,0.12904715944861755,0.2325174870604798,0.33586292385385286,0.43205066644017154,0.5228318500422107,0.6084912597056851,0.7053816922319385,0.7970895441381938,0.8764329433262263,0.9012580742713752,0.8954494431724598,0.8995736931373071,0.9165877317731299,0.8917953174210154,0.8355118822066248,0.7829820910739753,0.7605614387632411,0.7720940665749456,0.7978190330860535,0.8064124281329856,0.7991904153210596,0.7829004498378345,0.7580032141302033,0.7381517361122505,0.7599976605685714,0.8070937588384246,0.8246209390007091,0.7959096631727349,0.695384028611783,0.5906704318470573,0.49267041555872293,0.39170312815097263,0.28669094598523004,0.18273439816337245,0.086609512061806,0.01696033833560162,0.0615134845384393,0.14867646487921116,0.2435714248637708,0.3453287143351387,0.44200430081426645,0.5448926889168628,0.6465549724082529,0.7393794125633559,0.8288262123031269,0.8939403482375616,0.9151268762263656,0.9149167863528174,0.9397279453518972,0.9595532848232478,0.9367261255301638,0.8813189219791449,0.8278334758508081,0.7903183829549525,0.7956747324229254,0.8211206409640703,0.8262566947242054,0.8244803757956634,0.8074783826632361,0.7781867046598883,0.7416600374462206,0.7497934614528499,0.7959625129440839,0.8042176355628845,0.7329034276496611,0.6346083693090185,0.5351002282174722,0.43019280968122686,0.32802254776248363,0.23093937215582927,0.1265602983671552,0.029134353145903624,0.02297990083811441,0.10129001621539446,0.19224986962477475,0.2892127328856555,0.3893391218155102,0.486485625924175,0.5832551158797745,0.678975783237584,0.7746820192227282,0.8569245079144858,0.8912114091564873,0.8892512126410643,0.905259443134748,0.9248948251546847,0.9033685105389964,0.8564361625830144,0.807391897435018,0.7846232383917346,0.803795130309261,0.8297890103120067,0.8415934216433518,0.8344735727994579,0.8112540492232232,0.7732267611761314,0.7490982017272507,0.767391454126547,0.8015702481418034,0.7851634872231414,0.6911319028073897,0.5885648228482869,0.4917210602605995,0.38753436554179266,0.2824839522727405,0.18011376603821372,0.08339225773611703,0.0,0.02299334996168323,0.11126938479289583,0.19200662978174776,0.2908886159513875,0.3871727083084222,0.48427165598665,0.5828293711514334,0.6790708781474184,0.7750463091039657,0.8572173076294298,0.8934886087498399,0.8951028665061025,0.8971262851375774,0.9142715582682572,0.9091054793926072,0.92242610701605,0.9629597415426452,0.9565269219585093,0.9392801186767814,0.9415275130506009,0.9274318653021436,0.8782365657773445,0.7964617035768089,0.702939559264651,0.6052815609149824,0.5006017353378887,0.39714655572440805,0.3021694662214589,0.2608838912073872,0.33939692828702395,0.44334149058432115,0.5482890123288262,0.6480710274646506,0.7469083297886356,0.844025212359129,0.9018625043833981,0.8644013288525376,0.8311601066974088,0.8056701217343369,0.8272477334057831,0.8586308780482481,0.8722042437776483,0.8813364194028912,0.8714716944511669,0.848459868849172,0.8375836409511217,0.870673868616961,0.9240635551237837,0.9633192833736972,0.9686777500501691,0.9529745782105734,0.9350781126010155,0.9274698810893609,0.8895110070157581,0.815666860378873,0.7255802118831398,0.6288352898884115,0.5324186289805022,0.4362784848093453,0.3383214796002485,0.2610373937629975,0.3087198411375367,0.4051878787780452,0.5065856416845176,0.611074565190662,0.7034812663500656,0.7887796992837555,0.8827214059429453,0.8904699296913752,0.8590472641954854,0.8201840796504867,0.7880408106907091,0.808328325807558,0.8402917546151332,0.8583338965998624,0.8716320275641809,0.8641252586219001,0.8547740407934059,0.835584264855707,0.8546562875284711,0.905424611927748,0.9644415994354665,1.0,0.9966461587488498,0.9711151338989241,0.9609228796477751,0.9518580737992708,0.9086498625398152,0.8281173450825097,0.735279379673426,0.6412444276387537,0.5456838583318551,0.44804319932059533,0.3496935715087377,0.27862989948508354,0.3380815606912584,0.4412683285104384,0.5289066684582049,0.6188489966077646,0.7226264027099447,0.8211561924422821,0.9067789195730476,0.9074778976866367,0.8677993092352596,0.8225835660230438,0.7924163348133793,0.8113991695119158,0.8347668080859376,0.8432340849313213,0.8514874010459883,0.8390673901373522,0.8300647251968072,0.8103189847658399,0.8358099580425391,0.8898672831351573,0.9377612446941552,0.9583793954334388,0.9444912527614333,0.9349544755212347,0.9414013311612695,0.9358610990171532,0.8804172246876254,0.7962685048586031,0.7220240336879946,0.6440621583361132,0.5836909954384744,0.5826933194146722,0.6407640585189476,0.7183443100311264,0.7932462415590098,0.8869723208103866,0.9449108491170377,0.8991032893931141,0.8719205583721819,0.8349769824793334,HB
0.7694594441949086,0.7279206462648743,0.675481997918972,0.6173478565467484,0.5741801881136358,0.5798653364853271,0.620011195188006,0.6577907463102083,0.7197740601852581,0.7614663239429734,0.7816402422167,0.7822088172026619,0.7655555355202502,0.7571599122407237,0.7937187382294372,0.8260637097332243,0.8475624344720972,0.775574306435746,0.6882879082947783,0.5979681979562451,0.521281090438826,0.4347304116746177,0.3414585342132538,0.25009184348205393,0.16274776026384463,0.07047033347567955,0.0,0.02721231101614252,0.11300912051501699,0.20626791920656007,0.29774505625651626,0.38502991486641835,0.4772617330490919,0.5646858132944216,0.6553065546895219,0.7420051479231443,0.8142308157256942,0.8217366941936791,0.7883679528669957,0.7426201684670511,0.7142155499576514,0.7435094410529474,0.7953163818761743,0.8323262928520131,0.8414447564696722,0.8354615876601849,0.8189091331801722,0.8120602836204528,0.8505692153008243,0.8841165075879988,0.8871927956304296,0.8087296271078431,0.7207539923252361,0.6276266797229154,0.5341859378786668,0.4407464099709416,0.3483615396137504,0.2704162668808646,0.18808836096116777,0.11234284303229691,0.08542371005282667,0.15443904928361485,0.24158148417583247,0.331901228190997,0.41283739232654815,0.493178437564736,0.5819095679427998,0.6708039449085365,0.7590770759309594,0.8418934084894684,0.8576662115030159,0.8239614257857054,0.7854024883289409,0.7394087245961901,0.7368093573358475,0.7778605589100397,0.8215522811969639,0.8434455751640925,0.8401212455145287,0.8278505902519205,0.8031412630296936,0.8199488186199139,0.8618529890547001,0.8911518799311436,0.8420197273904363,0.7505491489641846,0.6630737838296498,0.5719210817114645,0.47856886305361124,0.38870750792581743,0.3002044366628006,0.2079850910884279,0.12179540621101903,0.0677391609686393,0.12122806225620242,0.2097023224521406,0.2977028375507207,0.38796520562930137,0.477752533918404,0.5661426354783589,0.6544635709422243,0.7331727291428863,0.8112185459079534,0.857862625973609,0.8410541139222661,0.8017108322135104,0.7554162731953501,0.7457282817107848,0.7884737103983345,0.8325453537247348,0.8489059680339722,0.8400693583117712,0.8348596057842749,0.813689634907436,0.8199101195696422,0.8488273897496644,0.8630521080993233,0.7931211683133007,0.7029510346035236,0.6149058125049301,0.5217783615653379,0.42967381341167055,0.34261776085590634,0.2503556663108749,0.16116191894757148,0.0782885863540076,0.06750452598925483,0.14912126848102336,0.24123441314723337,0.32827519240814274,0.4201281923589636,0.5077467847178113,0.598189165895287,0.6856308957484264,0.7733129527154677,0.8499375497573264,0.8509444295883911,0.8113731972441746,0.7683804243101521,0.7256627392521077,0.7319184243945841,0.7774689873042041,0.8227102511105312,0.8617904222795821,0.9049296418362879,0.9053895675822815,0.8445930651400922,0.7592041620770212,0.6662448922983845,0.5737757243896394,0.5155602279045727,0.5722030672555699,0.6649616702927502,0.7547201041736599,0.8429324209355072,0.929260279656703,0.9826469449867651,0.9342300482937888,0.8743577174317455,0.8476137955948001,0.8515120923741485,0.863605940014354,0.8628901888270811,0.8740284241300026,0.8660538819899389,0.8261560109690912,0.7816054640194733,0.7918556136595206,0.8371198651126454,0.8708587045083881,0.8917196657420138,0.8655560684313125,0.7872173713794538,0.6990930839652149,0.6105839023841652,0.5228437127003119,0.5021734935876142,0.5831952698400981,0.6764969883757478,0.7660471260215439,0.8544008976321663,0.9409434261284554,0.9999999999999999,0.9627026862181723,0.8997526908735495,0.8591935176207409,0.8313045205714117,0.8510942881330744,0.8621468511048437,0.8666485139461987,0.8540729185245103,0.8182332607768213,0.7722887441508263,0.7668196069033103,0.8102396169493303,0.8485140014434772,0.8852169554457935,0.9049384763673608,0.8525316240202455,0.7695750166770511,0.6796360876865396,0.595221090659063,0.5156737089771447,0.43340797286022525,0.43136718471958757,0.5176716337099959,0.6065847660747291,0.6959990012797029,0.7889698355087308,0.8767372080411971,0.961977631313273,0.9968055650504161,0.9388110643590052,0.8898940216258814,0.8522950645203192,0.8462910309688715,0.8580024134736665,0.8650435412185192,0.8604828931604586,0.8296529828911884,0.7808517523257822,0.7452150736686586,0.7727017198886331,0.8168693347733386,0.848087007316889,0.8646648594262792,0.8246759932766158,0.7400861186695872,0.6480847616848072,0.5610416621267377,0.4692415678119758,0.38202461378070984,0.3281527509735024,0.3912414620473209,0.4840927964815064,0.5722927412057927,0.6624981757759892,0.7546386308401475,0.8416062737684481,0.9279297713537084,0.9611676227531939,0.8987992168163627,0.839457124709092,0.8061908945484649,0.7881742147098462,0.8023176156350488,0.8055345017181802,0.7972189809919897,0.7689512075121699,0.7228987443805815,0.6915915605805069,0.7146638146537142,0.7215990949098744,0.7652044915372894,0.8006505081660079,HB
0.3073948504553008,0.21285374535808455,0.11406582923506814,0.11061848035818433,0.2087261594971821,0.3134654517292361,0.4015216401245798,0.512664532293909,0.6225850529640673,0.7178565267120169,0.7024287831622797,0.6571289456775988,0.661744463414967,0.6449897779377012,0.5667109605899581,0.5432989072313628,0.570402565608747,0.5588631016999632,0.5221924734420267,0.43316503139475104,0.3235304546414197,0.21115773218181944,0.10823439128352585,0.08628734136269678,0.1788369239072769,0.28766606409143014,0.4009621414734639,0.5106868764669099,0.6240887515730806,0.7076145496147423,0.6683551476318896,0.6246503739822435,0.5994705922094763,0.5394618386724976,0.48675787519089053,0.5164957699526955,0.5218877044930808,0.4454123006919879,0.3412108938800116,0.2356113215397433,0.14172798840911682,0.15251595413144892,0.25494775365835487,0.3641913116944453,0.47787787691544636,0.5879769677415914,0.7006885621779493,0.7816964297649327,0.7232143368259039,0.6259494816642364,0.5691837247722233,0.5272609960938286,0.45502032669129044,0.38875982420575306,0.4098783164916415,0.4855469439146549,0.5317503983609619,0.5119743740547809,0.4142845891054927,0.3044394237122172,0.20659896938122801,0.2010418002012988,0.29783965603968765,0.4076663511603815,0.5173772004352994,0.6294638839185847,0.7031655918406272,0.6663908393934346,0.6415897719812482,0.5946325882588941,0.523625797975755,0.5173291382042915,0.5707910184305978,0.5900701859616495,0.5494805282049262,0.4661198923160539,0.3628982979865647,0.2559006421801493,0.15697544433999444,0.15673894997102011,0.25533808536719027,0.3664296836531742,0.47717599006909506,0.5910643590308935,0.6889722826437457,0.6854979787233684,0.625806441686753,0.6054916202018075,0.5835672836518486,0.5100075905020298,0.4904099537251938,0.5251730220017403,0.49649511340420327,0.4126601723572174,0.31173955431362077,0.20291951645444506,0.09438282698736555,0.0,0.022014061944420793,0.12692685195968878,0.23973191382345727,0.34963755925956286,0.46342590077137813,0.5721749077270153,0.6744454012541214,0.7250967321644315,0.6494890698696014,0.574472279290295,0.5259877927815297,0.4517383833296762,0.3698158081426126,0.33583552123595295,0.40127629399483866,0.47248679041298103,0.5015130648089041,0.44366258586256,0.3392233188092615,0.23367116917619657,0.14861238902478147,0.18214114621214783,0.2873307255002939,0.3976082996956585,0.5096718294374505,0.6248412545805699,0.7145839377754104,0.680552702919967,0.6379978190143494,0.6343196971408664,0.6667152140615782,0.7220968128531784,0.8197445719509824,0.8876190478216306,0.8272777043315982,0.7167959287104355,0.6064599567232307,0.4919337472466654,0.38849314414252745,0.3796377545083731,0.4710863074627625,0.5328317460276093,0.5216754134157733,0.469287924583228,0.39754731656321174,0.3978627963666319,0.4783555467295093,0.5519075635185611,0.5931485787994821,0.664694469846689,0.7680897733085925,0.866907488033672,0.9655002610011869,1.0,0.9131135006935092,0.8002717004503246,0.6848343114780218,0.5693681510576436,0.45392498436462114,0.34063206741625973,0.23297240784750306,0.19186150417698133,0.2828431767460282,0.3932187506468392,0.49944149458325526,0.5638735778817705,0.5433466114660901,0.5284881372804926,0.5979671572344862,0.6396195100900963,0.6445730342330669,0.7047760649535406,0.7970168918873111,0.8830841372079077,0.8551236207235511,0.7485113254410274,0.6389264599122708,0.5243244100021824,0.40893918552843256,0.3099015595480783,0.3373504614931371,0.43939843688030034,0.536320312518898,0.5955180507807643,0.6221007204377498,0.5968247447704531,0.5518041614270379,0.591107454532483,0.6512812689838363,0.6829835461373468,0.7235305642348875,0.8200996168863244,0.9248904559707707,0.9773287957926844,0.8984835648502612,0.7879623367607469,0.6766631238768439,0.5634494287745688,0.45387104108286436,0.3716562615975827,0.42801532347584725,0.52673922137571,0.5683396366775821,0.5413136111606149,0.4775373613480134,0.42823169103213576,0.48160669909141096,0.553189071829356,0.6015312228914655,0.660860706443132,0.7569281040695957,0.8620110735497359,0.9546553147441563,0.944232374786039,0.8431251641665143,0.730750900161389,0.6153422784582341,0.5000296675289073,0.3904623288334417,0.3091326635508882,0.34575507667170147,0.4494175375776226,0.5350469647153837,0.5556971460974618,0.5278773011097324,0.5576268413525065,0.6222761276443951,0.6495356957015648,0.6956272515642394,0.7827828115751001,0.8381787190008816,0.7665347450863456,0.6550471576158372,0.5446157941659684,0.4320405223587229,0.3204151916665856,0.26960241884877223,0.3495271366901549,0.4454163699038096,0.5394172073962815,0.5785087239015041,0.6006196892339655,0.598597570558306,0.5708211586640604,0.6145028070378693,0.6915887049734999,0.6955974894292443,0.7009215814204712,0.768072122658982,0.8663313006827753,0.9280139711024498,0.8601052146388872,0.7492012131033317,0.6373212321733008,0.5292279205576118,0.48544920507461375,0.5415927997878003,HB
0.2813532459517887,0.37124455038397675,0.4208022864327512,0.44432571258709674,0.5415600240092904,0.6416210362492978,0.7189468341713801,0.7174046199454087,0.6572956554365301,0.6373923534557286,0.7078094440438092,0.711029196227382,0.6028886217116207,0.47662061245719767,0.33692451785322564,0.19508573806673168,0.09673043161144523,0.14781865308350794,0.2625228267547801,0.3992845021552245,0.5458877958639075,0.687169977928751,0.8244108784196962,0.877597384900737,0.8020518032820829,0.740023479311753,0.6638721074049305,0.5797551248643054,0.4835552804575649,0.43847527407913955,0.5048788457896449,0.6115146108629903,0.7098360238733952,0.7604956925461621,0.7116470130601791,0.6538443583455111,0.6715124018882521,0.7414413652369316,0.6861433543591555,0.5510271324803926,0.42285235771946117,0.29823014957411,0.15354569141496044,0.02921389259189544,0.04078371312652562,0.17808054988660715,0.3230084547536023,0.4644543038068025,0.6057647657770577,0.746729350436049,0.8611984948865155,0.8340911101169401,0.7614909446250591,0.6922410864471014,0.59971750276931,0.49750157470547474,0.4116513219318618,0.4187516599538108,0.5176702909096209,0.6266622938195991,0.7059021567847614,0.7018539236542678,0.6473088436947567,0.6404081172893592,0.7038345375009347,0.6716628443616288,0.5386329838832979,0.3959976456283616,0.25571371473040094,0.1116139397251994,0.0,0.044662916641327044,0.18707615198373717,0.3271321175963806,0.47311430952202627,0.6128495724223246,0.7556360723262394,0.8516303690260549,0.8001106372085525,0.7353671068915293,0.6697419277301415,0.5809270992062194,0.483460801910536,0.43525274176641937,0.49314243244969025,0.5998003929020019,0.6939064569462821,0.7278654612652369,0.6813012874036433,0.6345137110736709,0.6712416136473454,0.724145593717638,0.6413683898054663,0.5051720648702644,0.3666845808710748,0.2206209980558016,0.08811080643317482,0.06754251586306959,0.20040652648068336,0.342004355388845,0.47279542422591425,0.5964517393480013,0.7354440469523553,0.8472829194246974,0.8107481333171129,0.7325700653208858,0.664142769394996,0.5816410338157405,0.4892917038619371,0.43023771469498606,0.4736715801705287,0.5736720516886031,0.6675295753535757,0.6877373647108069,0.6403335780909909,0.629886666111305,0.6783692358148301,0.630561412462727,0.49626686305102985,0.35784197621945446,0.21934324913839798,0.0982765657735869,0.12009961453359508,0.2617249265022299,0.40740371038966505,0.5473629053133735,0.6861426121280176,0.81192807867228,0.8074873489991232,0.7311209335240518,0.6727112449080808,0.5978666302736688,0.5085974187132065,0.4449935151541158,0.47997669094066464,0.5756692583944931,0.6613073055768008,0.6793565144944991,0.6264974436020128,0.6150563211521936,0.6756815365751445,0.7258994277009034,0.6788067184157593,0.6675438087832728,0.7200798104077013,0.7283599664182303,0.660894910031131,0.5671165125913535,0.4997342645129812,0.5518367329270462,0.6380991952552757,0.7129392134176198,0.7733898192720214,0.859878581190358,0.9494180225350657,0.9088029271763205,0.7689516360135269,0.6297140079657881,0.547367768204819,0.6457178301782636,0.7552535539599077,0.7523305009988703,0.6894229995844381,0.6845447745344846,0.7349347952605585,0.7400238996575348,0.6736424279610815,0.5770311986012058,0.4992933494917995,0.5387107268232889,0.6307712813319972,0.7085999283534037,0.7764004521817645,0.8609716692950127,0.9653806299903003,0.9850398334848778,0.8752417330755782,0.7281303825579262,0.5870714243493376,0.5241992413453771,0.6337240708377536,0.757592956643349,0.7853305832873667,0.7232227913343101,0.6974765062157438,0.753788688682169,0.7796391647564234,0.7303828185080576,0.634115274617326,0.5327701781614425,0.5094869882532114,0.5999303023800888,0.6890946506231608,0.7581009639355336,0.8201360747002215,0.9164682272749556,0.9836106005255438,0.906630247776844,0.7748469823791921,0.6390097424544521,0.6366372227072954,0.7527190359449081,0.7845514441113324,0.7233337628109051,0.6946522690339207,0.7466963145349992,0.7777993064318245,0.7225873920259118,0.6285485540448066,0.5224911132465822,0.4538459620475457,0.5242041634212515,0.6280169076588697,0.7186250892294967,0.7901654744881716,0.8587999899131054,0.9616748663918766,0.9941481131524104,0.8907218420973317,0.7543110322780715,0.6673973410996068,0.763730463157587,0.830117032771329,0.7827741102895522,0.7142652500448745,0.7354701077007662,0.8030742650196403,0.8109323774001032,0.7455014078134699,0.6443825494467201,0.5411085707433527,0.5246829622665155,0.6163149015660647,0.7013914453839958,0.7751389755727984,0.8360130099820042,0.9328767443288004,1.0000000000000002,0.922754258005072,0.7902494560524997,0.6518070665360975,0.5387468017790462,0.6137002409855181,0.7524001157797022,0.8184499929695532,0.7687739161617115,0.6971958591124563,0.7203690739770232,0.7816045081938718,0.7765219893560278,0.7050616043315043,0.6072623773015906,0.5268084070674532,0.5551696429405124,0.6330942305649925,HB
0.7048704153516991,0.6798804373384784,0.6282416994105378,0.5681542887617792,0.5395318314263212,0.5736362868285351,0.6104398094508388,0.6066469053259435,0.6206128266026151,0.6258431986402002,0.6032833170167267,0.5386074710098211,0.46339543108634706,0.386358253191864,0.3096043111286083,0.25484371726012456,0.29394450879148026,0.3722912456530487,0.4516661098425304,0.5332527301579273,0.6107352861159197,0.6840967976859182,0.7368940399535588,0.7062399767243082,0.6844696764376874,0.6770804270358859,0.6271023195822966,0.581802285450145,0.6058891094622947,0.6403120537088629,0.6407237607055032,0.6415120514509483,0.6646632159172847,0.6623166938902867,0.6030296731353506,0.5250878975533274,0.44834918602825824,0.3694792404134002,0.29191988060324237,0.21804510833293456,0.19891443107536189,0.26491788781280434,0.3428138137559825,0.4242537954765163,0.5067144084055613,0.589180257249312,0.6713517896883896,0.7489277930648137,0.7876901386092059,0.7471430346677679,0.7282947524631136,0.702363219970414,0.6457610196784864,0.6073601965540892,0.6364491055871224,0.6673004683795922,0.6593730612220676,0.6053804891727023,0.5259294442566571,0.44386853318406505,0.3654487652478363,0.286335323540702,0.20799787479868048,0.13079642640334133,0.09837703423942579,0.15675288013005717,0.23582768448816327,0.3146829740207161,0.3968133480956414,0.47608968459353795,0.5558888182445673,0.6382850228213621,0.7207067829738598,0.7925890485095004,0.777809869930097,0.7198414754750202,0.6865331663420464,0.6395707691224761,0.5815234892113643,0.5267471096157538,0.5296282852942217,0.5853184464013245,0.6299255067262335,0.6430754396214173,0.6469735691587377,0.6147869728070499,0.5434289293136317,0.4674278041440896,0.39003615096813193,0.312814657844494,0.24893655790891,0.2696552603677814,0.3447114064220581,0.42421958752503475,0.5057272358239138,0.5838464948594426,0.6653623026670445,0.7321848029205547,0.7169395076543026,0.7037060862799578,0.6875113116402176,0.6309727639330737,0.5936048602679875,0.6206055781462657,0.6406714636808839,0.6015774271567356,0.5269499767923259,0.4450713688861948,0.3629031094184396,0.28432350235560444,0.2042911442510016,0.12615048903217319,0.047371591086835696,0.0,0.04774046537169335,0.12552321916331954,0.2076506002797055,0.2883791609600447,0.3668810618759749,0.44890594624065916,0.5283146413858498,0.6079736911113253,0.6896089479758594,0.7359262513485634,0.6991080792012687,0.6672241892925463,0.6220861258680561,0.5643244590672449,0.5155166296189385,0.5344023264297192,0.5924841894369084,0.6366674364959848,0.6148158890344356,0.5642132449792318,0.5750340110425329,0.6292619714857531,0.6768313045669225,0.709638858990419,0.7666923407432791,0.8420549501088945,0.9184240078679144,0.981677048895083,0.9587922085830503,0.8824341194047469,0.8026916190390279,0.7203000410135638,0.6380413598943104,0.5591785894403626,0.4789183534000462,0.3968745846273848,0.3184977179388727,0.24660726821123358,0.2611243520497376,0.3383666857263996,0.4169642801250113,0.4960019033523615,0.5735533207361836,0.6396366713197252,0.6624673057389667,0.6456694678267298,0.626538890734337,0.6724287758183327,0.7164276202842803,0.7275844802727804,0.7672384802853878,0.8313924693592467,0.8288286114403216,0.7576613074335086,0.6766466361184365,0.5979668704064234,0.5174941958292019,0.4391477735659177,0.43042395903214536,0.5007444562929125,0.5767292558155699,0.6427496723319277,0.6682636200511167,0.6613734830588209,0.6528154182301218,0.6209133369832586,0.5700734067195821,0.5782638447426537,0.633095610613122,0.6854922962648802,0.7204967614769786,0.7719500259962218,0.8448301846217805,0.9215824068307783,0.9937602838971753,1.0000000000000002,0.9275770403053438,0.849513987601737,0.7679988457196638,0.6855410489512272,0.6039313492011237,0.5258126565932668,0.44419047150616586,0.36256495017314716,0.3197892735705279,0.3784508680365889,0.4565809114873217,0.536685904271727,0.6134064041533097,0.6739561787579293,0.6882969957415708,0.6717882139061528,0.6439132661803395,0.6829608471797932,0.7329875971470234,0.7507235798307654,0.790677646151525,0.8605064236726472,0.908624262804133,0.8635553063498709,0.7841340266156565,0.7056119798115346,0.6235815370389278,0.5442153993908511,0.46641879812130405,0.4069722318535479,0.43547117926623535,0.5107457073605943,0.5864742313479895,0.6564596988882903,0.6910340227094864,0.6813372249579941,0.6614786749260879,0.6648060212132649,0.6532309108195877,0.6179620502096079,0.6343645201339324,0.6878931080572532,0.708449548240268,0.7175669734451748,0.7747842808546206,0.8453376426087225,0.8698207755968765,0.8049266341198136,0.7270242308186445,0.6540890538112074,0.5756196563711563,0.4943446315975981,0.4522757653586882,0.5074563051795038,0.581057186203961,0.6349814124948046,0.6468548835476733,0.6446847695678362,0.6304518798257791,0.6343303237525404,0.6094514108426266,0.6161326490422028,0.6720153403413993,0.7119757113070828,0.727754816360193,HB
0.6765349478445813,0.7271125897352225,0.745993007114529,0.6760771932219743,0.5973006092731911,0.5165341163692799,0.4332865958903407,0.3551180428716174,0.2740097491812411,0.1961073476350098,0.12905857485410677,0.1526442835683267,0.22791574533879044,0.31019370633191623,0.393970333082036,0.4767601230389166,0.5545248329347644,0.6366984214297599,0.6941207691160926,0.6762031218473755,0.676708177165778,0.7158814369324699,0.7627564618780381,0.8099657705672733,0.8502363730584651,0.9203642537475646,0.9608304566433273,0.9551115030034382,0.9368246129016701,0.9102602290760765,0.8797668225414078,0.8711148630665025,0.9033364157247884,0.9314831863866343,0.9350235725047448,0.924060121987874,0.9140224279220398,0.8954210855322694,0.8991614826195896,0.9402144281412613,0.9202158553500946,0.8455501460579428,0.7655894857238915,0.6833030456326264,0.6054853055364512,0.5225676199487629,0.4399605172095905,0.3621986127158444,0.2800752559560362,0.2021862344648272,0.1314147472665037,0.14092490596709262,0.21316655424940167,0.29595455210843336,0.37944050218688885,0.4580780810636824,0.5391004348798555,0.6228512240554437,0.7065903005691706,0.7873046882188813,0.8635242554600068,0.9306869181800396,0.9551938137621637,0.9502571953452789,0.9274267009852714,0.8979323617178988,0.8697156867734969,0.8689470967078522,0.90471900481316,0.9223724495698219,0.9267733706799729,0.9141820860039093,0.896251012713917,0.8756317507065227,0.8737390698184856,0.915490463445846,0.9023660719006442,0.828321638328943,0.7505584072982151,0.6683391321694939,0.5875370525200171,0.5087206267148733,0.4251911667811691,0.34140405701893417,0.2576171029957026,0.17420090297216084,0.09580815947193444,0.01939185174436009,0.0,0.058385400056344294,0.13769692363651986,0.22138463291485766,0.3050690752637917,0.38493067681551796,0.4646187184226046,0.5482615094373994,0.6297458414576967,0.7074787962627346,0.778596690121837,0.8466812387318979,0.9114718032147516,0.9224926541216086,0.9110243787748288,0.8945239552094854,0.8691292143090604,0.8440406054177522,0.8539843953614655,0.8889079321649437,0.913170695670911,0.9280996695591585,0.9169369903975405,0.8881816905914223,0.8680355807526151,0.8835115087105313,0.8896422762966695,0.8329237224452358,0.7529244646196239,0.6748893925974458,0.5932246391762407,0.5138150237354405,0.4336802550722336,0.3500413971342705,0.2696177806095299,0.19050286826148743,0.1098852011091318,0.04147450423578014,0.04994158191042697,0.12419785264327321,0.20344330560774582,0.28705563855671035,0.3708427836859711,0.4546299288152298,0.538417055950741,0.6219779399707465,0.7009287665006042,0.7789010682614678,0.8459994734071336,0.8663845740727129,0.8508658093929141,0.8271079577066981,0.799385910126471,0.7808528439409138,0.796986995434329,0.8426459224741368,0.8801290167143959,0.900346078267353,0.9033649172072934,0.9115371689309725,0.9285764342929895,0.9319864363517966,0.9164652769143585,0.8850509320419752,0.8401528824178209,0.810388584919849,0.8259436814972178,0.8532002303748446,0.8801459637064327,0.8957565420180095,0.8920853441804911,0.8376878899544015,0.7621044080362321,0.6880460323550949,0.6171216456768024,0.5388794832565206,0.46528969940733045,0.46996282523957145,0.5460611727037884,0.6251163148739852,0.705852322966042,0.7845119002455759,0.86468772113949,0.9263938504673138,0.9361872914240933,0.9097234275858047,0.9115843342555391,0.9413342677915054,0.9619633990047042,0.9534783340220235,0.9334379185310381,0.9056942266039861,0.8789624012870044,0.8940686486942501,0.9196267829170438,0.9418215315858055,0.9527431641659169,0.9568601559704496,0.9195669982938456,0.8491862466926293,0.7718579783351011,0.6929892749523109,0.6148978070907442,0.5322140894321258,0.45715765260958485,0.4443642297512541,0.5196697817307906,0.6021024683280473,0.6798954807334673,0.762035976100169,0.839925700995836,0.921719785984961,0.9832219051749601,0.9666026422419148,0.9320587285216978,0.9123008606634188,0.9310399551664837,0.9452617632348618,0.953921342343594,0.9530986632488313,0.944617107840713,0.9172560358834568,0.8944573750932915,0.9160356650779823,0.9467540333522703,0.9735168825831112,0.9859188567946325,0.9885271472258425,0.9714968677207733,0.9131335048130348,0.837796991528215,0.759569754740853,0.6823417063564047,0.6150929809692515,0.5574344693293799,0.5148662939411316,0.5671835264572119,0.6502847682071374,0.7292324595804222,0.809464272150806,0.8875069980428424,0.9599656450784283,0.9999999999999999,0.9812128961454621,0.9421097234825798,0.9237409962893036,0.9413317260055886,0.952200663592028,0.9632761598271266,0.9629945501123668,0.9424434123386337,0.9060982408683295,0.9082761367558462,0.9372204440512019,0.965058331054046,0.984051413628911,0.9930272028488306,0.9736655521706411,0.9122455383390279,0.8370291877647981,0.7563405822806762,0.7217944802625752,0.7823196736901427,0.8606069752135582,0.938514494743737,0.998120452763361,0.9916614614365425,HB
0.8019434496941105,0.8234686471314765,0.7893104312961086,0.6928293278155788,0.5786050949429025,0.45679828788114296,0.34279340802256497,0.22855295864573888,0.12460672965764763,0.1352097328398414,0.23867665624628254,0.30302319699413527,0.3693306229735951,0.4615589435752092,0.5592953897621338,0.6687592501523474,0.7899754262209733,0.8352973031533995,0.8035348442407186,0.7765262383621723,0.7697198767329496,0.7278580673844206,0.6940664346713055,0.6893821475109934,0.7182556801026836,0.7477750870476285,0.7458437054220219,0.7200192281507785,0.6811284443212426,0.6771216016044144,0.7274919666397852,0.7767837850752217,0.7743293826838213,0.6925056485099916,0.5766861700208277,0.454740511177687,0.3382692845298543,0.2152447455034454,0.09839946785216336,0.0,0.030385616308609364,0.14067394109257325,0.2667595326971153,0.38667172375627734,0.5064178344278045,0.630322224797701,0.7454989622193087,0.8206410717965666,0.7880351558579273,0.7601615982664769,0.7332816131671098,0.7038608752701392,0.6767190694170169,0.696030636779557,0.7179942006959936,0.7396173008600071,0.725424361552502,0.6851150255709797,0.6556195750937683,0.6922747663446978,0.7563154988165794,0.7746594430816831,0.7612151944742558,0.6749942739969725,0.5626691131220758,0.44209023678926096,0.33196768459906645,0.22898661888440675,0.10492888303523307,0.013163331907024567,0.05885965270620108,0.17199164321312344,0.2976284167550802,0.41359056442759234,0.5377211919890632,0.6550875874589059,0.7644992088458005,0.7895532339244964,0.7634860372514538,0.7381104513844345,0.7038140617115154,0.6604588866674428,0.6449230439727431,0.6719151046077334,0.7179027215666345,0.7650776974529152,0.7708962720792409,0.739448662839437,0.7126429796812812,0.7363485916052026,0.7943165422021115,0.8274674996073825,0.7968541031803005,0.7026409136379725,0.5909380774080599,0.4728709097172117,0.3587327904451514,0.26371438015686754,0.17383422307229246,0.09947025403154042,0.15987279116045006,0.2784221344495985,0.3970579928275946,0.5203131736173465,0.6368460908135631,0.7586352809111667,0.856573812565288,0.84855280539756,0.8171045026889989,0.8001346549590327,0.7648609647221623,0.7130830449607113,0.6923412127380191,0.7176434095689359,0.7455140994360558,0.7417346055205956,0.7199762456233687,0.6736345193980329,0.6839650069269299,0.7379552373545093,0.7850439945793677,0.7774222073506993,0.7052200532073578,0.5905138038034687,0.47316319730513046,0.3574120376051426,0.2403378145618844,0.12268149784220128,0.060548436023637464,0.1331806973223939,0.2494484269981383,0.3499509163842496,0.4628513937989722,0.5867272227417559,0.7023793587349365,0.8082843759954104,0.8090739385946386,0.7772915004030363,0.7548195361408117,0.7121232516292282,0.6597893096353968,0.6659456720558552,0.7196388178454538,0.7764942984321683,0.8137377383968216,0.8354058097468267,0.8747122978113375,0.9322897116260505,0.9003508539865561,0.7939212184735975,0.676827046559672,0.5580705334456826,0.4811046335751006,0.5620008059275001,0.6779109567516532,0.7793104012804735,0.825680553169263,0.8327245148867197,0.8006669767689343,0.7495079281405368,0.7550339591713375,0.7912347431024291,0.8096265838806187,0.8040145172099793,0.7738111598864426,0.7457996873971933,0.7782912488202358,0.8277757237215182,0.8613381176162047,0.8766998555227459,0.9275931033107283,1.0,0.9655136633139225,0.8596447916236212,0.7444537813410435,0.6186458874738294,0.5517540136157297,0.6392877017167358,0.7501467359255254,0.8428894215745237,0.8779261190006209,0.8832780715846895,0.8500054140887072,0.7893958427570031,0.777428515383427,0.8139417175312436,0.8329286928012567,0.8170322506955574,0.767397155426885,0.7253406686246393,0.7065790463821173,0.7329727489461377,0.7741146197261104,0.8046341115759397,0.8298168087998983,0.8752201501231718,0.9377101641973709,0.8785682047522707,0.7696867763806163,0.6570493605095833,0.5398144631368256,0.5321307900329346,0.6411419117693411,0.7562843004313122,0.8209961476538439,0.8309593959617438,0.8269728523989861,0.7883846447724645,0.7217264105049264,0.7239606355329826,0.7624800088855839,0.7954780322035093,0.7951768617573087,0.7800994630486384,0.7507069172758833,0.7429754105261237,0.772314033970344,0.7979317699862789,0.8178890679100532,0.8405192639442447,0.8922824634733351,0.9515256383788264,0.8929309140996962,0.782874248013433,0.6717363846599773,0.5525099940107907,0.5243846688165887,0.6281428170594361,0.7393648671909827,0.8236539648093699,0.8446310955869349,0.844625819076823,0.7997474790794565,0.7396467255405184,0.7482870336905982,0.7808016094000783,0.7950614976592956,0.8096583335312326,0.793576351323642,0.7668709434255736,0.7593457751908952,0.7930432070019151,0.8377469549738463,0.8442407086031309,0.8680871399053549,0.9252856406436631,0.9462705307316366,0.8569104571814252,0.7400372080774207,0.646367028234085,0.6899208319889802,0.7932263438606011,0.8546067111307716,0.8828440769442216,0.8578812511760838,HB
0.7246160999156406,0.6350155188443223,0.5430227463688704,0.47681130434145946,0.4269232487711103,0.3528363681356743,0.2852491861849109,0.27728195625925856,0.32600044975638465,0.3630127610120675,0.32237423419161426,0.2905122026746132,0.32648257214154786,0.3886714110474039,0.39936387257198636,0.39206216531571325,0.42815127314605417,0.421017692426789,0.3343670264729164,0.23270026853466308,0.13173788572869127,0.033688763961201906,0.0,0.08560414479424372,0.1868278056931012,0.2927094776030441,0.39654438495520794,0.4992425301511656,0.6061239048798801,0.7090711021448881,0.7306684070529472,0.6444605911167696,0.5498264263275991,0.4706031640697337,0.4226395240047387,0.3689522887649048,0.30165573402201673,0.27477437042752384,0.32765170218648665,0.395356980597489,0.40044160527777106,0.39836271554174885,0.4398375071190408,0.4411559933603131,0.3591459609108878,0.25722232587428295,0.1559314135494052,0.056047912989674376,0.03957212316048908,0.13211369035448117,0.23505778087909457,0.3385078357613811,0.4445762744326238,0.5460066554227738,0.6516949262607779,0.7489015076913867,0.7488475211750281,0.6561617204927492,0.5611499568754668,0.4975008891675441,0.45310034124212395,0.38853547394286725,0.3388858322474113,0.37017856432170637,0.4384228938309098,0.46366079240308644,0.4645974135036026,0.49959694047631986,0.490561935660639,0.4034307506097152,0.3024528239482098,0.20129787717653658,0.09913978880258967,0.05492572808682972,0.13437084954326928,0.24090103544042618,0.343628521490394,0.44741827016204394,0.5526614304067989,0.6542576028303033,0.7589423559972606,0.8069531246829851,0.7311666996913255,0.6355156140116596,0.5561679726651998,0.504724848563004,0.4520459734264808,0.3820379198642587,0.35723647153459837,0.4125327382833359,0.4618399419364638,0.4491644255913234,0.4647061908339294,0.49163522420837813,0.4432583352857702,0.3398041164822143,0.23418491654271967,0.13290699327443645,0.04086103299163413,0.0501554721669728,0.14791153769288057,0.2508882408982396,0.3543413614059314,0.4611417754094189,0.5639453256467175,0.6675814414438037,0.7587488435510319,0.7315904718906225,0.6389499444649684,0.5559946054450435,0.5086853377262703,0.45945837681355894,0.3954970222883165,0.37534473470359897,0.43190887849475024,0.47725082192366397,0.4614542023986019,0.4861633438831847,0.5181018981079708,0.47121737641957373,0.3720845851290293,0.27047440637633424,0.1714679100685894,0.08620563513187318,0.08409183034386636,0.18152641049079965,0.28702230827028163,0.3885220912521339,0.49479222563605463,0.5988432094017699,0.7012555239271916,0.7943279521390185,0.77755015123557,0.6854543683331271,0.5957751310311539,0.5296763144199994,0.5119629924132134,0.553389503947955,0.6247312125436126,0.718807245850374,0.8164476297928143,0.9112772395279278,0.9720296988776291,0.9126300561032648,0.8072687410412696,0.7011548917068275,0.5997412853325053,0.49530190398555596,0.44550621153789915,0.5203471535102122,0.5714373051138624,0.5391150188412326,0.4978517927188155,0.498715609206023,0.5024803514149176,0.44705660427798577,0.40866337622771454,0.4556001370748244,0.5134274495572311,0.5570041431951203,0.6303255427256473,0.7251159780606959,0.8224525518120216,0.9151347086431623,0.949052855637464,0.8698577372505805,0.7694018910170386,0.6648613632167366,0.5633996199558611,0.4580806935361017,0.39930534746352553,0.46841715156154806,0.5432403023329819,0.5301046900890583,0.4931142978780201,0.4867617252958445,0.4878545623273638,0.42853660479709865,0.38464386109847415,0.4330171421804698,0.4986996095012113,0.5438756154517459,0.6084510191525951,0.7030313848536116,0.8004238463957289,0.8981908164749846,0.988985017386578,0.9999999999999998,0.9117055489027182,0.8154734013269147,0.710695291877133,0.6092890861827931,0.5033786788128816,0.4175615709817413,0.4563320611521462,0.5388353655741831,0.5433387012393065,0.5049309316961499,0.48698936393295966,0.4925802340833225,0.443740222196056,0.37801217118533814,0.38700215309147157,0.453129273786119,0.502080422248335,0.5569937058446714,0.6432596116947782,0.7411547782290833,0.839788800654464,0.9381435387277355,0.9645035107841251,0.8820524348223426,0.7825475229912575,0.6923678503739557,0.6031712656133972,0.5016660041132888,0.39677863050313356,0.35590493220782204,0.4359685718877122,0.49560275552949884,0.47282913713982233,0.4303065649457931,0.42773440439142285,0.4329871881635625,0.3773261690878258,0.31719647766836156,0.34191602974083213,0.4074791565349052,0.45635600953271704,0.5131563077018491,0.60139583821216,0.6983463922486364,0.7960430733919359,0.8829952904505598,0.876364608931244,0.7818297911156415,0.6789466631207324,0.5757683112803893,0.47191726474856566,0.41108266252459047,0.4658169161008343,0.47705472422951933,0.44157483844999157,0.42033339159038485,0.4346634433319343,0.39966154677148347,0.3350730006661147,0.34992501410447274,0.418536233424073,0.47101373484577214,0.5222489884170105,0.6030117557527117,0.7031889487776302,0.8006720716026934,0.8883194464604571,HB
0.5206023898637278,0.6209079486436688,0.7203253937499627,0.8198758157261707,0.8133876217298779,0.7689060143304012,0.7247307465408599,0.6551486042751573,0.565136700322642,0.479813001116008,0.4680537353639611,0.45533260805960474,0.5119880808631005,0.6011036200369959,0.6826263285221879,0.7407162506694811,0.7458492637251153,0.72439444830282,0.6835407558063706,0.6466486926266877,0.6743298426751188,0.7255949596574807,0.6985646470029518,0.593401508902287,0.4785148223487863,0.3593089095051485,0.24623188992393708,0.12598609348894563,0.02531280704896033,0.05637453815247517,0.16985775296033023,0.28322454047774426,0.40386121641200323,0.5200929422124767,0.6352470259881979,0.7493921865354616,0.8294628321804276,0.7885999508641448,0.7442703714293613,0.6948894561513195,0.6243860051211534,0.5272297017529239,0.4392023695802345,0.40399012332933526,0.4715356402298554,0.5644585332085537,0.6525039404032893,0.7196928798456883,0.7413122382868056,0.7254806272170358,0.6821318421593201,0.6530033822678865,0.6834833999051768,0.7302704938701945,0.679791749500507,0.5660603131571673,0.45061059437010487,0.3345344083639852,0.2169292901707578,0.10306038360903091,0.0,0.015227207835338152,0.12469625113958371,0.24599202107621232,0.36436606186281506,0.4780244689074493,0.5988569312518857,0.7154947368037641,0.8207980487652748,0.8238011369611122,0.7539675736103169,0.7078125133230435,0.6507396491431121,0.572140606092755,0.480889423267995,0.3936719817522547,0.36818393542571437,0.44346524864196013,0.541275147278458,0.6282039344871846,0.6907961887668728,0.7098801412986377,0.6846991788047418,0.6555632374910045,0.6290904741327112,0.6640316848402925,0.7204851210627692,0.6974975031754325,0.591935313554754,0.47694674887524235,0.3593748023233909,0.24532701933875734,0.12746742242126796,0.05478534328274787,0.12453437009326662,0.24471767883699935,0.3595942674659567,0.47621044473269425,0.5913214370624575,0.706969851799931,0.8062658921788532,0.8006005031010512,0.752661671962346,0.70660889894099,0.6364503544896547,0.5515563990349766,0.4643136400864114,0.42225262741994407,0.48175893871086783,0.5748941139797048,0.6620744826593443,0.7200875600634633,0.7337948908499854,0.7189139778011386,0.6911759254786096,0.6803199107314062,0.7287220601290727,0.7616711758002865,0.6952441701009806,0.5813271705003744,0.4684187880606534,0.3488421641752997,0.23499381291068122,0.14936226569282463,0.19728200730322265,0.30820711900831976,0.4290093032561839,0.5505575916421495,0.6690709196274256,0.7802408841241641,0.8340678606086191,0.791182715536844,0.7495812301715743,0.6880854889082784,0.6059615307376678,0.5176914970525941,0.44489400707508264,0.4593958420553035,0.5429744246974262,0.6332113847959224,0.7018283176462046,0.7447515095221986,0.738833543984033,0.6769960061854843,0.5935034462002589,0.5107100603049068,0.5267055972209038,0.6139562544144783,0.6978819878583449,0.7627641649081514,0.8116303963412492,0.8637313058138982,0.953109729889587,1.0,0.9145334431640677,0.8027314815379678,0.6907354036357838,0.6048538342510166,0.6646132586612576,0.7658698509923214,0.8126998249777797,0.779237700726751,0.7275571546944475,0.7368065417729932,0.7629624969930404,0.7774894220052619,0.7651518362461802,0.7174815419913725,0.6350723015872175,0.5442239259511392,0.4782267714958395,0.5250569755390764,0.6163557992286322,0.6953484741375449,0.7552359149512746,0.798281948295533,0.8643329347561033,0.9597052914843287,0.9838615138075828,0.890262557013227,0.7697513810584904,0.652747775898469,0.5710563518968941,0.6304742546635365,0.7344472656527494,0.7777846812971352,0.7372465940345068,0.6806744899082084,0.6876768633143839,0.7263530054326459,0.7449208852217382,0.7385022457619193,0.6951415154975928,0.6185332698666977,0.5239132386047454,0.44520902091182424,0.4693513937771885,0.5644804088337136,0.6501719085588282,0.7148718884595773,0.7612477987170925,0.8242194264257918,0.9161164783546236,0.9897467126228094,0.9412829937300673,0.831847935573574,0.7189419811032767,0.6076057480157657,0.6064602853425618,0.7144727885458095,0.7865370472741664,0.768047270018104,0.7137095744656217,0.7033800853129673,0.7487081174809509,0.7789442380568263,0.7805976550667557,0.7380504513811461,0.6651714658112191,0.5734484941692093,0.48952385007485133,0.5166248862978349,0.6084935061893639,0.6949757082180934,0.7520978962493361,0.7950248919300122,0.857990626711572,0.9490096470985754,0.9490217749222225,0.8488796183281728,0.7360342253674181,0.6216922965968681,0.5097795978702258,0.4564017706390058,0.5521005949724069,0.6658851546382583,0.7639633262772829,0.783822971213759,0.7314789888896889,0.7059054925456634,0.7401801094130946,0.7749372429014305,0.7935694036873246,0.7698479936612315,0.7106872009655383,0.6296780713695929,0.5374514169425735,0.5204189802693235,0.6035337772926037,0.6928306293793878,0.7623977526622219,0.7984373186302816,0.8419129740001927,0.9217098712657781,0.997258861793203,HB
0.5101912444897669,0.582389750030722,0.647597635051663,0.6992217570141201,0.6914905312775068,0.6148617825552705,0.5343524790404268,0.4999610337406617,0.5345691908177181,0.5965397030269302,0.6615071511296204,0.6284015034096271,0.5869591473508864,0.6495274157296409,0.7199877868065456,0.7014196057459956,0.6067448572012806,0.5011312274445088,0.39139019265512465,0.28134890325107054,0.16917835420673,0.061831007039103936,0.0,0.07430138006775833,0.18943025710327577,0.29875475250293415,0.413568910990306,0.5262577182597936,0.637027064887139,0.7488258000422472,0.853422053591528,0.9161243435387607,0.9257923048861805,0.9368919976241725,0.8856716769710953,0.808644674055008,0.7322087097279917,0.6990443159039554,0.7158319496283045,0.7079926829613725,0.7409056827494847,0.749230612151307,0.6656516131822277,0.5609745080098543,0.45161532560930673,0.3412831124153688,0.22849314039255164,0.11416596570235482,0.051956426570763714,0.1225509160154723,0.23688116207701015,0.33890741558308335,0.44057241508085054,0.554311544968469,0.6636251830827025,0.774576230128498,0.8806558636786159,0.9469727210638279,0.9623850483564553,0.9654872975460989,0.9124741842323723,0.835052981275906,0.7508014395456684,0.698156140850904,0.7066071245422378,0.6988453534635313,0.6719212011394597,0.7090704874582585,0.6903078419019522,0.5942987388992751,0.4877415326036054,0.37954325331380256,0.26833184330373494,0.165078182811345,0.06973115104126704,0.026273623351221742,0.11296399769465948,0.22354360843513388,0.33606092957447786,0.4486492322995328,0.5508220484307043,0.6534101671096328,0.7614257276826157,0.8634758428364628,0.9062392846877549,0.9181440652889212,0.9257349191013029,0.873055453159925,0.7960570997678857,0.7224531139791714,0.6888412462070406,0.7122037862267292,0.7021517227479077,0.7197889853169321,0.7271060213486935,0.644648854134144,0.5399676866316507,0.43259413436310834,0.32316377645427363,0.21066187723546004,0.09506367675639793,0.022021266753200264,0.0787460901786805,0.19062760481016205,0.3007538699986252,0.41423309444997813,0.5268429070443552,0.6377024395291524,0.7503094453157562,0.8542008278569364,0.9141921988013586,0.9336624312054278,0.9374118515910692,0.8833979011598625,0.8043311910202446,0.7246960317750364,0.6858593505016186,0.7071968344324826,0.7021786462376975,0.7004416245692702,0.7248200106924483,0.6549422370140807,0.5514239271571664,0.4421316349096027,0.3331621779420215,0.22178621893291028,0.1119434645755224,0.015384406211784052,0.023032122825132673,0.1306595785525706,0.2476071455706581,0.36136085791305383,0.47136318990068804,0.5855511688791148,0.6944091825834702,0.8024605287118327,0.8892320571485255,0.9073885951483467,0.9243974505121477,0.904138143685002,0.8305536439956176,0.7534346159538821,0.688728615043456,0.6852018248104332,0.7116539257022949,0.7376133554883024,0.7257781996716963,0.7288833768249672,0.7996850066007628,0.8777797763022555,0.9461599845861564,0.9637253166244488,0.9473069311465758,0.9413240499077844,0.8816232482201887,0.7760743363161822,0.6873333214462374,0.5902405504560657,0.47817677037594586,0.3702113704480281,0.32907237779160226,0.42364946497569833,0.5311675958437443,0.6361888991887117,0.7293188852950516,0.7623890221849838,0.7415230114681415,0.7482942646720521,0.7336613407530077,0.7269836776668519,0.7890267503041488,0.87043595380518,0.945120918437319,0.9796829663306597,0.9666775209755947,0.9615351454157086,0.9234936124533935,0.8258562907164118,0.7177520989679795,0.6075502675171278,0.49507590673021884,0.3977799662781505,0.4253291320816366,0.5139291309649525,0.6199816553857866,0.7227316691163836,0.7728194003495241,0.7520756915691635,0.7464663489429424,0.7418641946852056,0.7336238426241148,0.7975128662786559,0.8752394232092873,0.9411045344134417,0.965226114904002,0.9505582815184337,0.9510160333224584,0.9006897704986063,0.7982850736301739,0.6826965149012447,0.5688188057551156,0.45889699060323763,0.3466316258036719,0.32563041507286394,0.4243385459202522,0.5333214664829546,0.6393224793650911,0.7276423779458525,0.750859735655419,0.7201428289584626,0.7395100177905121,0.7449239396600378,0.731309433288879,0.7856691253657795,0.8690858293801469,0.9472505879711597,0.9974226938225608,0.9999999999999998,0.9891796473907537,0.9990310945009668,0.931746063426323,0.8259870311870965,0.7157216330833267,0.6052077273008696,0.4940535202730614,0.4410688171067543,0.5278629929641576,0.6364855855883507,0.7416579957007083,0.8002572304935256,0.7902476417269093,0.7463823812145658,0.7517933485244652,0.7406943123391236,0.7659088295261767,0.8444287266728738,0.9176666878496764,0.9702025240581156,0.9689807058720472,0.9587800622454816,0.9497497609549499,0.8656738145316938,0.7538367509417163,0.6396127205350308,0.5300064527905854,0.4231670583511329,0.4318346492825551,0.5350620159830255,0.6398100784322875,0.7329087531896554,0.7701592234887118,0.7432985681627138,0.7407786108469077,0.7308869237646982,0.723637971705483,HB
0.6092268590442991,0.6548978687637828,0.6969086989599099,0.6979597300472665,0.662206024110012,0.7002432567086834,0.7685542153489272,0.8218308542818235,0.8331832845052544,0.8096781374715588,0.7579019206023058,0.7110103907283384,0.6989310632280331,0.721017048242302,0.7461214608827634,0.7495832637621934,0.7478583258915469,0.7579869292795768,0.7820910438058629,0.7766689185653969,0.7099295578069991,0.6350565580489926,0.5611918342246934,0.4848455196967383,0.4118796477625213,0.3353399123595573,0.26164536923446013,0.20733595090395307,0.24152290220538186,0.31421448557567744,0.3905786142017974,0.46354313353305887,0.5395777220394298,0.6125789799047705,0.6878756439233877,0.7603623359107686,0.8314493777258573,0.8989562885442014,0.9509244532108553,0.9737826065625889,0.9650747886113632,0.9156067470607404,0.8532292221829404,0.7937175919322176,0.768864174834632,0.8045533549140395,0.8472260231598713,0.880535439428279,0.9013819463805354,0.8658741179697677,0.7951631224312669,0.7218824579405559,0.6448216445801925,0.5703341202342296,0.49593205193851675,0.41854411573211947,0.34105802329718216,0.2637669287076767,0.19335412667988966,0.17953887205744,0.24374207162712302,0.3170051780457036,0.3941298487324071,0.46981276241160963,0.5431667999808438,0.6186177735954833,0.6910188990760758,0.7630633675191202,0.8349573488135534,0.8925448179043239,0.8778621761564122,0.8584831087101233,0.826136102481485,0.7727136340938136,0.7226691140076867,0.708402189546761,0.7443727387218434,0.7633519619256882,0.749363354684056,0.7479719303867024,0.7384205379580359,0.6738774354920758,0.6003726972065252,0.5356307701288542,0.4713921655141027,0.4004681187403354,0.324084626909265,0.24696603973510856,0.1736568708447488,0.09795021823467642,0.025237168602382065,0.0,0.059629891601784335,0.1324991073735336,0.20856231624276905,0.2828882224339009,0.35744429550543444,0.4348479309320926,0.5122816991401509,0.5872113822670219,0.6588234990138256,0.7290662510738015,0.7928665751017211,0.8321218062844687,0.8370909955856097,0.8019098995890054,0.7510430166396865,0.7201351828864615,0.7437696259879901,0.7732050687795696,0.7848128644410987,0.7744388929123222,0.7568036097867549,0.6899889385145263,0.6126521440954993,0.537812268116125,0.4637469152054433,0.38662914544316174,0.3129497148608762,0.23767045821301014,0.1610858233680149,0.08831749884542739,0.027058554502626064,0.048098121345718337,0.11922037829869409,0.19559784170231803,0.26856195963253715,0.34489745467350585,0.41828593217506527,0.4939368863329201,0.5712495845435973,0.6451426480947688,0.7161602313677445,0.7810078877097683,0.8204562186036678,0.8345031966863289,0.81230446970285,0.7609480148611268,0.7227785064319902,0.7376190808467148,0.759914965570274,0.7690456578556385,0.7597651599839806,0.7882261416109305,0.7925391732798871,0.7837590831834326,0.7638081293986844,0.7487856373532419,0.7839926541167958,0.8349610225877196,0.8547948913122766,0.8412480622745008,0.8133567889082772,0.7515838743760036,0.6808627488844483,0.6093338833917369,0.5367464987030812,0.461247179884939,0.38820238095879844,0.3197659314417538,0.3327472290339437,0.39756654443804096,0.4661035023947816,0.534046917618271,0.6056709783943782,0.6808681159393956,0.7537239016295066,0.8061590952162471,0.7979522613147044,0.803188635831649,0.805453985468383,0.7846724639589696,0.7542896259021238,0.7660240425726715,0.816184075836141,0.8553091707371937,0.8579853317756331,0.8389010368037716,0.789589698608688,0.7191240897402981,0.6470020471189261,0.5748530094262468,0.5021708817041425,0.42689569903541846,0.3525613214272474,0.290499677374083,0.3158876904848327,0.39154145290961173,0.4655749462890485,0.5404387735100337,0.6164365384193519,0.6893930788040236,0.7604735875367402,0.7890253272670958,0.7682644968049509,0.7656355569238155,0.7822597317003707,0.7797099224215781,0.7458245622664991,0.7386593644291951,0.7874125265341433,0.8408488793435588,0.875391541509687,0.9005708435435192,0.9396452131082923,0.9152807266278605,0.8523293646100073,0.7816533396812059,0.7094641454634925,0.6429172776965649,0.5762239327077167,0.5116555565411255,0.44317807340186866,0.4478317776780535,0.5210931044183751,0.5979444130644023,0.670964184467972,0.7468700949072432,0.820079329012032,0.8933120915389258,0.9289741807049509,0.9145208273833613,0.8824560276091867,0.8476380296312881,0.8035404454783207,0.8085621293197826,0.8699439982129985,0.9321116478854458,0.9819042886840964,1.0,0.9827581952843215,0.9516971330499885,0.8937893795187403,0.8254199681310698,0.7541857732387237,0.680893267505997,0.6295327445967721,0.6701389001348457,0.744071310685417,0.8180572843786736,0.8771623097265656,0.8627022245410191,0.8088910644500805,0.7785869167464842,0.7676311089215918,0.7681559992877908,0.7700336556058992,0.7448814211594709,0.7229357426007456,0.7300750632106796,0.7781268309653308,0.8279824554084009,0.8515731580149409,0.8512978784484527,0.8243820741621165,HB
0.26241401363716266,0.3399113334634307,0.43214813873530344,0.5166033102278855,0.6018250915748293,0.702585590166064,0.8035321167172034,0.8785591282820318,0.8278962918508643,0.726318206698592,0.6322128790117796,0.5307278062888807,0.4221879025519566,0.322543470220765,0.23053708712158016,0.15212923600031303,0.08833764022345059,0.029382989435815077,0.0,0.043771532920232836,0.12022372404606596,0.1888783567735628,0.23004337193574287,0.2939746812931021,0.38269644610182274,0.46430328829886824,0.5425376413163425,0.6430909742642046,0.7425184812858288,0.7884450992583216,0.710463822377182,0.6073992214514949,0.5029119142068408,0.39770377802978185,0.2981037500715509,0.21056812292048432,0.13794742912137758,0.07316171314624542,0.016283320833997195,0.006116567329806033,0.06374280456593051,0.13677752507117047,0.19077370725705034,0.2682981559167801,0.3464580492739606,0.4177736094799853,0.5035375057859659,0.5791187420354731,0.6531325732800362,0.7546445495143645,0.8558452033741204,0.92288981753412,0.8596456321643602,0.7597847155029689,0.666308035198198,0.5636580829717801,0.45968849027566816,0.35762180167082924,0.2678703226154133,0.19409159612042792,0.13022374751723342,0.07078911115921604,0.04910052702557777,0.10202216059903702,0.17739500971672806,0.23039393746516734,0.26771324236231764,0.3476145685533778,0.444349431321885,0.524505443723482,0.6040885376122813,0.7090032692249779,0.8056788625816782,0.8185043211711704,0.7266243021538981,0.6263193562080154,0.5336580231606984,0.43430732261767435,0.33266660025526784,0.2444099985354049,0.17462852072279333,0.10829988169234483,0.050722046010109434,0.04788840432362762,0.11129907775831871,0.18353592201561653,0.2323703123630505,0.2817959191836219,0.36199200839057344,0.4573955632888975,0.5390454695064959,0.6213798700220101,0.720832743934976,0.8216238380057352,0.8331460382212852,0.7380150415238076,0.634036205247221,0.5300502319311136,0.4269767242750422,0.3281357247152825,0.23316502052797716,0.1601513586172525,0.1001189362508641,0.04452507840785236,0.02744753973845193,0.08294670251100644,0.15390931593887514,0.20100867311233261,0.25509507894328154,0.3382505162630367,0.43032449745002244,0.5114016564461588,0.5878875878985841,0.686983756811862,0.7856416776184809,0.8152671532002091,0.7272428742628934,0.6236453896058634,0.5216758953391056,0.43003995704780507,0.3342025685037504,0.2396287453793251,0.1635597779723752,0.09858952025229062,0.04045836098970845,0.04746324453892603,0.10854340195891132,0.173992074175229,0.24712378879709784,0.339048261825484,0.44326200452152276,0.5465113634086816,0.6507930014077263,0.7536167969852774,0.8514121648792228,0.8958303951068491,0.8255592688574396,0.7270542668532958,0.6290363383021271,0.549152636822174,0.46801109994974,0.37616675284487355,0.2886192213866239,0.23063548110600096,0.19208320112465782,0.12560707900857504,0.06051655047043969,0.0768397912282377,0.13398188430799296,0.19776641704698927,0.27380735181887417,0.35927871787903687,0.4639265088096054,0.568276140557008,0.6725369396156062,0.7770978061106328,0.8794084020479223,0.9464573832028558,0.8916433854523251,0.7938762111588031,0.6932384041367783,0.6011694218037165,0.5211933525375798,0.4290371859355635,0.34005287867382994,0.27308882843742266,0.23768055171963343,0.1782794403949628,0.105160864867746,0.06787701984148908,0.11583259352814945,0.1795598904530189,0.25012854740307344,0.3354876487514018,0.43190486867636935,0.533212606262687,0.6422811441936194,0.7462544402971638,0.8463605276232267,0.9199941627399633,0.8788536263598221,0.7797707744450348,0.6803352109218483,0.5879078245076197,0.5114977698011021,0.41705526291117123,0.32748642619510315,0.27134868721547667,0.2398296339786814,0.173070491037697,0.10069636661640291,0.08106874793189367,0.13566935048867101,0.19796857595669248,0.27028125632329725,0.3578445017151546,0.4547989437151707,0.5568570305538056,0.663567744560432,0.773086835638152,0.8767731668928078,0.973768567271208,1.0,0.9169482141714327,0.8139770506970125,0.7143278583178172,0.6343465415777869,0.5500169398445236,0.4573448305873853,0.3765351884182129,0.2962548571174757,0.21926804435856062,0.16412723793202488,0.09242632007170348,0.03551086273223225,0.059652781871008864,0.1226010917893281,0.19088867258395936,0.27370058508922845,0.36714837810740053,0.46679134442036374,0.5707088134506451,0.6762624703823048,0.7824405400290939,0.8620429952307138,0.8325935320621836,0.7347342787892119,0.6311693837086849,0.5443900905756507,0.4695840467509036,0.3829455303545677,0.3014014664994584,0.2435472030976571,0.19888075876113875,0.12795411896130648,0.05560576869484768,0.038424337506033135,0.09114839974983724,0.15206354474928707,0.2294661792464583,0.3213366532881621,0.4197769367917332,0.5215643296752586,0.6262217084382466,0.7319591857470913,0.8394865884784979,0.9333338148795081,0.951544528662688,0.8722085396245081,0.7686323855055626,0.6629787234667675,0.5707447889741624,0.49421036171842214,0.4005501021746962,0.31424715142053095,HB
0.6212878357494471,0.6742364792775359,0.722883341519343,0.7425678809870249,0.6865988361332864,0.6303358696628032,0.6241519920853449,0.6652057629895158,0.7165988129772702,0.7453022749465925,0.7029476043076692,0.6246283008859008,0.5417247444976483,0.4559987752171741,0.36583612234672963,0.27616433878451735,0.1908486234486803,0.10292844526208356,0.03193423658175737,0.03079696406455712,0.10869103764820626,0.19452183214936974,0.2839076553452215,0.3692406436878803,0.45832697949312534,0.5467807335079233,0.62926350116698,0.7061378839938903,0.773787991072348,0.799631518693521,0.8085603432589132,0.7746027631211607,0.7174818442891422,0.6690961217589102,0.6794379369080021,0.7277233580229352,0.7636576134880437,0.7555866439687748,0.7778571765134215,0.779122706222162,0.709515666318719,0.6262067848575954,0.5382379327994928,0.4480291063502709,0.3615999619472205,0.2745245997799059,0.19498293899471592,0.1875602109028845,0.2522884264902328,0.32066656911905006,0.39896752503113714,0.4883494969470025,0.5739416842701865,0.6622823317030924,0.7483866938524997,0.8352537153072175,0.9163034971605486,0.9607729774804232,0.9781226851416513,0.9556055778550117,0.8981463476927909,0.8357190887069466,0.8026497140726723,0.8248375611180625,0.8378058436713645,0.8122644405669919,0.8265073536564855,0.7983419119030508,0.7215476044863631,0.6369549096362328,0.5518636859357009,0.4628752841794425,0.3724944768299692,0.28460691032915925,0.20882916659304057,0.21721665932704232,0.29657533335642833,0.3859089730277651,0.4744368220071356,0.5600651272289183,0.6495116058358801,0.7349593159048347,0.8216042243679427,0.9033196739767584,0.9506222492085914,0.9699428675647224,0.9708155320870409,0.9233393353129162,0.8583113248524219,0.7978173046489903,0.7772794950029518,0.8056407180149874,0.8190939079591886,0.8116078763888832,0.8164819477803011,0.7570357321752805,0.6742945236859859,0.5898234042529833,0.5039274064928534,0.4195084000568113,0.3421531510796851,0.2542863786313702,0.18040995424540723,0.20535294320462222,0.28805338366340477,0.3773002791570254,0.4626039741028299,0.5482896351435995,0.6189790902314989,0.697697264121599,0.7855474369928586,0.8684410103176159,0.9269065756608807,0.9590474457264597,0.9653700825102662,0.9176084155357762,0.8547731528902864,0.7903896245502242,0.755203942127382,0.7868753064044356,0.8100162629445529,0.7799266635405144,0.741824777389843,0.7000143842509758,0.6317970788101779,0.5504657837501621,0.4651592333441091,0.37870668857092965,0.2930202907400978,0.206021547457021,0.12073919557796692,0.03330500026424321,0.0,0.06987889600647407,0.15691335504266407,0.24351562136941146,0.3332794351969422,0.418797358251814,0.5069525468662748,0.5923530686540552,0.6783483997780517,0.7488483509347617,0.7705409872050077,0.7544352728738022,0.704407851015679,0.6497184866883579,0.5906269071920696,0.566344376157,0.5863416839934583,0.6041649872546928,0.6636963353795615,0.7183618449182048,0.7694705318398509,0.7992369708030209,0.7979154224446108,0.7852165999261806,0.713974255489823,0.6296591780628442,0.5440001183047807,0.45506986565650503,0.3698089599275665,0.2885806597827187,0.299020181110418,0.3806148297273863,0.4690169861039883,0.5581119470673335,0.639873542082477,0.7089533192231239,0.7579897561550106,0.7999771604021606,0.834343333834981,0.828693421712295,0.7943499433433652,0.8186172072518132,0.8809074121979124,0.9448024256188012,0.990159236015306,0.9892496845945944,0.9637590497482742,0.9420493106577084,0.8728793944963233,0.7891283792772383,0.7033171906090852,0.6159818058750879,0.5285268062896695,0.5012282996221133,0.5746750943830918,0.6603915679274361,0.749082161458472,0.8232111909770026,0.8519750116738862,0.8419416202490488,0.8431857644467624,0.8168018844638014,0.8099485659378796,0.862208813900917,0.9280070148319401,0.9821336829672942,0.9974557278554688,0.9856768219595275,0.9605611118586994,0.8861064871696391,0.8009523646153001,0.7152666866548929,0.6281673465914264,0.5797391395273424,0.6323226057062152,0.7125616513359747,0.796052297713989,0.852425821035478,0.8527783835955878,0.8518782641616995,0.8665433746418625,0.8405749372204485,0.8410264417680076,0.8960592603173929,0.9577640989234504,0.9999999999999998,0.9989576471720876,0.9788842918669125,0.9306392676353958,0.8498087413408042,0.764806594826835,0.6764490455445469,0.5899650281568438,0.5393080794674463,0.5959865347307503,0.6810703359724661,0.762333515225043,0.8144758832731245,0.799223008086611,0.7910766638133178,0.7735829985967166,0.728115562913924,0.6908961536481466,0.7214760933232423,0.7795008376370303,0.823253662735685,0.8345851052632525,0.8213915911246221,0.8081741791817343,0.7398855767778043,0.6555885943699633,0.5701345020329038,0.4804334019666458,0.399782238551649,0.3984538073552146,0.4771726974275215,0.5624869748993677,0.6464610949840668,0.7257621424047394,0.7732391308104705,0.7729347770236352,0.7732338802567276,0.7520791198971868,HB
0.5899532820890798,0.5805651393643194,0.5526022661734753,0.5530151010559965,0.5821432802125284,0.5370916630170839,0.4306490171233708,0.3163562374486497,0.20056574609342293,0.09984200380058361,0.11323734694227827,0.23093266036202587,0.35309880595078424,0.47300327611393045,0.5910872018013775,0.6993699819732389,0.7973570360977551,0.8953230277867295,0.8996596527428491,0.7947292253488742,0.6888829629652384,0.5975253434312437,0.5275492251028562,0.4712487747269789,0.4176942327811701,0.36603016673236355,0.34846928438324976,0.39855704285229465,0.4686548836734461,0.5218832791452293,0.537139182998638,0.506823887657587,0.4826567347472175,0.502139817142701,0.5553069006901243,0.536961963407746,0.42666517448809205,0.3135998593188518,0.19576902356063441,0.09229861203424328,0.0929158889392061,0.19719075985968293,0.3140426359947093,0.4356310007185471,0.5547858492377722,0.6745145649116917,0.7735379857329756,0.8691350017116941,0.8675581984716569,0.7716079362779491,0.6630708469065467,0.5613456526126421,0.4863306894977464,0.42498547457885993,0.36892149579224376,0.31266765588421674,0.2880597505874498,0.33692509579454444,0.40995393607040875,0.47383635291564263,0.5092019195329016,0.5025208383449999,0.47951588287898184,0.49718530748356016,0.5302449535363458,0.47485783533707804,0.36530638775972046,0.2409796678759386,0.12212223498673214,0.01241426136944046,0.0,0.10592855297697867,0.22349255567832294,0.3460384226394042,0.4643932403332707,0.582977012951085,0.70250480486699,0.8184589273490734,0.8890347017494651,0.8235099693880825,0.7171175989264389,0.6146922476290666,0.5278302112518432,0.47475540627707447,0.42165191925964307,0.36804108026759663,0.338334247504666,0.3780484657453853,0.4536408879929914,0.5177651547502944,0.5581839078849511,0.5632023381634796,0.5387713101803422,0.5369049345236616,0.5705900961835846,0.5682284774039827,0.485037037826497,0.3847259651894859,0.2601598963599703,0.14334523671316401,0.05797511482514639,0.1073784238334421,0.22206845312121826,0.34399957531118797,0.46204620200641044,0.5837961275847017,0.7005694748475906,0.8168393663327473,0.9184667532182564,0.9003903424962216,0.7983682417685232,0.6941874211785228,0.5956311412033932,0.5279004928410507,0.47876269954292217,0.42271843448570645,0.3680998606077821,0.3589522617930607,0.42006059379610705,0.4898583390847435,0.5404490856902655,0.5562568639618719,0.5377972864298994,0.529868874095784,0.5547940076822637,0.545218331622525,0.4507982036400071,0.3346149450588711,0.2107787830634289,0.10112043930589953,0.08223547422601452,0.1662967368316266,0.27308258445275135,0.394511660709578,0.5123393217886416,0.6333285328820868,0.7490302804754634,0.8619692794064668,0.9196154424264302,0.8440332543455435,0.7368750912388518,0.6213415004812448,0.5030035784924933,0.3877407917051998,0.38444104636115983,0.489513143499291,0.5892670883429452,0.6158961145746773,0.5820179339868592,0.5759994145588105,0.5920066911826869,0.5892262033474804,0.5547219423985592,0.4908381315346817,0.41862300198695945,0.4043928115089501,0.45978207348628586,0.5158570705984051,0.56486045435637,0.6350992940420779,0.7346870725698829,0.8488509647172864,0.9472886518391472,0.9999999999999998,0.9536880968094839,0.8528468102513258,0.7422009923552209,0.6244565689883281,0.5062161621408114,0.39803350554204786,0.40572613135804825,0.5108159878167935,0.6070403136451616,0.6252446732319032,0.5859554235069686,0.5785005397186442,0.6031604037186848,0.6033173117887609,0.5685897774826871,0.5105074493848896,0.4354051453620482,0.3834477198281696,0.4151059147878591,0.4721215010910542,0.5209792670578104,0.5807014868906271,0.6732900646123376,0.788801923717694,0.8924247736607722,0.9589924165850918,0.9281244054658371,0.8316638115961112,0.7221770339722735,0.6035660519034052,0.49291019093808397,0.3938295106228169,0.35436527210689817,0.45046194703343967,0.5468147940172277,0.5718818966351134,0.5400423412172357,0.5333073267080464,0.5559627912742269,0.5485237688978544,0.5140564934102871,0.456896481765831,0.37902550160954696,0.34080805526886526,0.38487271497231457,0.44333406419356414,0.5010312284114182,0.5720310041478698,0.6650007987383069,0.7699690525932741,0.8786722021872009,0.9472801310445684,0.9193321381918287,0.8183424489653837,0.7072794774491695,0.5900065016024791,0.47243391702738635,0.378268389402731,0.43247463325208746,0.5387098761209275,0.60929683840965,0.5889108467262323,0.536771214989449,0.5449506035043121,0.5818707281520312,0.5741599379440994,0.5424324558031437,0.4819807461820178,0.41633602610924725,0.4083932599108595,0.4559478514876185,0.5132099928887104,0.567094251244123,0.6436261097772598,0.7409513019299643,0.8475237722843361,0.945608202002935,0.9911355547929064,0.9335771606626972,0.8318087947016084,0.7125474182030367,0.593739927693689,0.4734694550100016,0.42023095470655414,0.5070009748999917,0.6017503453833044,0.6284506034569712,0.5963941303975637,0.5930887463428329,0.6248488001215844,0.6279088042201952,HB
0.7300277346983863,0.6999001683547879,0.6916608465666352,0.6489937228945426,0.6257323665451582,0.5979543645106691,0.598483089122402,0.6438075134700518,0.6502539165163574,0.5681778203249781,0.46959023063862215,0.36730591490693043,0.2769199112548886,0.17647045626616742,0.08986348725593807,0.12350893918246775,0.22570135852815487,0.3361573968637199,0.4402593357594651,0.5173193678463919,0.595818623927646,0.6843422111947093,0.7609912820209013,0.7373549233590273,0.6853057361917378,0.6447328579190683,0.6154963988231941,0.6203877167859939,0.6109106470925583,0.5783172289298564,0.5660818314750309,0.5893372538032171,0.6415299729887156,0.6524639889500634,0.5720202544333008,0.46917176640389724,0.36408120313612846,0.2562669946584619,0.15828477889817094,0.13995779061017632,0.2303154942788097,0.33605390668924406,0.445738773224156,0.5486074184408736,0.6570764060392604,0.7612033117783685,0.7807185973648849,0.7403955385788534,0.7045238547596357,0.6655971429299568,0.6584576885161186,0.6362946608257718,0.6090972990264627,0.5842621791695379,0.6295075019128571,0.6681191794416079,0.6056953651992008,0.5058683219984021,0.39918264110613144,0.28854096856974376,0.1793823605021332,0.11388986302733173,0.17257036363786682,0.2789997577021719,0.38724168696003414,0.49022131962278004,0.600104508203984,0.7087674218375419,0.7914559545754072,0.7596257335848473,0.695925662439284,0.6792556329488177,0.6473730948693468,0.6704168294945352,0.6685141969441377,0.6669092006166282,0.6698837845535635,0.6569192095014902,0.6706692887826278,0.7336904404849809,0.7308329365229087,0.6414984396802541,0.5316233638344376,0.42761739764902607,0.321016287470411,0.21770463983847121,0.1583346997508932,0.22494576758519624,0.33327720583534526,0.4359868093053889,0.5449607806499261,0.6550715984266182,0.7506171010254741,0.8425664241340942,0.878392196557408,0.8206742082685197,0.790698814439982,0.7468740496204076,0.7078104253141344,0.6581365138195696,0.5868864335281405,0.5353541051221302,0.5142865118464857,0.4685544546563396,0.45534085627082255,0.5049001396110979,0.49657961545544693,0.4039287668227096,0.3003205822570374,0.1978231588820314,0.09149772393745281,0.0,0.004558211226764586,0.10286096142125167,0.20550562964637065,0.3150214481015563,0.42477197798483446,0.5275934295621227,0.6261864243269188,0.6317728585903746,0.5913032690701323,0.5496336059993303,0.5294333972709788,0.5149917916415789,0.48586896509318556,0.45121119673948873,0.45872927951919307,0.5095648329819307,0.5051153884808812,0.4184141052229855,0.3153623465595443,0.212002627562901,0.10770493214960908,0.060214393477330486,0.13499697638215924,0.22994732171391385,0.3238187863668267,0.4336145293570841,0.5393257549169834,0.6441107168222686,0.7288277808893733,0.7177389700937642,0.712063906074919,0.6708394620289662,0.6701828357602995,0.7095932969335941,0.7446130725690581,0.7306791538211685,0.7515950512675709,0.7663935510802231,0.811911966485249,0.8263490066725305,0.7411872779842978,0.6337452622763668,0.5309676907237235,0.4224263838520015,0.36760694178261444,0.44631559317706326,0.5387517641903803,0.5870029612339498,0.5579181326029141,0.5008694235043571,0.51128884390597,0.5463424340791119,0.5759785860657143,0.5769163891734288,0.5899253479534912,0.6303297473653986,0.6753466319291435,0.7396450046870653,0.7218951643755989,0.6260262612040872,0.5216379118069112,0.4160281680598028,0.3261453423487084,0.37012803286066087,0.4694305868907458,0.5522270308028134,0.5729416033792398,0.5363876020168326,0.5412320116670639,0.5881934375959519,0.6187985033030698,0.6819938536770807,0.7418460391313737,0.78490899492186,0.8285527802826449,0.8704823760033982,0.9443486261762297,1.0,0.9435886822079058,0.8418774834309519,0.7492211663027011,0.7012113790184189,0.7723348143741846,0.8273652932887718,0.7991929127228246,0.735057177767461,0.7243344871414399,0.7330319528336557,0.733158131930844,0.7268427999328178,0.707965450926002,0.7259414771033503,0.7443538258734654,0.8049304955273833,0.886326060002856,0.8861205096541314,0.797174076331117,0.6909624438188695,0.5996901777178665,0.6323998935040227,0.7055601780491711,0.7117782365331478,0.6549606738570588,0.6326877094055527,0.6708431739101568,0.6997394158804824,0.7090547202709716,0.7385658909436492,0.7802586883042268,0.8103018470031857,0.8761756248026127,0.9090569640425987,0.8375320801366031,0.7314381965232328,0.6269909948006205,0.57569728526159,0.6541488038762517,0.7295889328154419,0.7140369001379645,0.6469046636896618,0.6175407848273788,0.6332393690224281,0.6636521827066142,0.6743600393779112,0.6745023469867211,0.7166051612965538,0.7414701399681984,0.7892656676241918,0.8575431058918981,0.8493406470909282,0.756353745224682,0.6492028881534848,0.5519203873243335,0.5743019795604711,0.6621941631115031,0.7256490357282497,0.7017184175639739,0.64978155454289,0.6594485979211135,0.6998881971719284,0.7287650270984711,0.7575944729190491,0.7910163264791565,HB
0.0,0.055601983982994874,0.13864008835895536,0.1955911151032219,0.24950505521417243,0.3329600450043224,0.4328250341971258,0.5263816367094751,0.5303373944671761,0.4468628368743093,0.37525537537341824,0.33221535348338405,0.3096215998482079,0.3154195592537685,0.30821520871459285,0.28374723693666004,0.286363092070554,0.3127654811726952,0.34486537070968115,0.3571696188929425,0.3559009430801092,0.3404661866285559,0.29244505922239394,0.24784455747837386,0.2704076577376813,0.3274434340408545,0.3699321440739851,0.40837761626719793,0.41023849369578924,0.35987756991962483,0.3289812923877191,0.3896996374556494,0.4860061332925283,0.585998580394703,0.6788575640653591,0.6468231933264375,0.5581707278436165,0.47946076585865294,0.43234200111966503,0.42868615321024217,0.43169855326870454,0.41189055088868853,0.3859984817730515,0.3810296377552791,0.40794343802205235,0.41768425864886805,0.4124530866022149,0.3924319141970378,0.3741788215001325,0.320354550284883,0.29081507790846484,0.32398380293244644,0.3697198540617834,0.40767038202726535,0.42109050489409183,0.37320783674889935,0.3243080978522377,0.356126023672108,0.44486276151516124,0.5461820586733768,0.5709572850228901,0.4981706116442375,0.439017581124431,0.4088357904278994,0.38488953182300145,0.35887597240038893,0.3339795784263022,0.35538263276342974,0.4012146139284054,0.44260750963499973,0.4513131805059438,0.4262279065266674,0.390375156807957,0.36218894436740934,0.33328152097329067,0.2715757133638079,0.21500019765205014,0.22911961870596986,0.28210617811467653,0.33203942106570894,0.3740448529508038,0.3861818231427061,0.3355096732392,0.2979578150302622,0.3498874474228426,0.4453116824948231,0.5454549497310666,0.6116994709857515,0.548609257270491,0.4679261208973693,0.4108682870176028,0.38863394788450156,0.38081114436350294,0.391152925871439,0.3780796798186845,0.3553244296815983,0.3502973135192682,0.36896528318520216,0.38471262972102194,0.4038473906276234,0.4011688301026859,0.35835211565074365,0.29925565212244276,0.28854572378050847,0.33249647627303336,0.3691218576493953,0.3815765987338211,0.3401994261546575,0.27934124987343845,0.2525793622455712,0.32358581989022683,0.4265102355538186,0.5249676036877551,0.6198296922183149,0.5988483496455599,0.5218144957449846,0.4762486553715828,0.5063365575086745,0.5716557728619853,0.65829748494347,0.7556015027385214,0.8524472218547117,0.9505879628910439,0.9770131579336883,0.8905939629892203,0.8031010249257391,0.716619781667251,0.6100221293126826,0.5095997751215391,0.4090889441911134,0.354537700526238,0.3989839426467592,0.421844500968493,0.41709827054569537,0.3878289239802739,0.34188104687620147,0.3606989136380032,0.41741531459614256,0.44355751725571313,0.4518548913058211,0.43925822522430513,0.4153215282903031,0.39979830290344376,0.4012337410261759,0.423382940759363,0.4453833358168624,0.43231815521578243,0.4313630258878369,0.4635239083715059,0.5359475798329778,0.6336269569971336,0.7318617686594879,0.8287440499206529,0.925695754731072,0.9666803203542327,0.8961732375095455,0.7904224204070389,0.6928274594941928,0.5876908440591744,0.48647558885096576,0.4073023449477873,0.42433402578113366,0.4330780255557065,0.4048016041113529,0.3586334167827534,0.3099210143815663,0.27228221558166465,0.3193548278810452,0.37965137975685703,0.4033576814161215,0.4340590973980323,0.4688092458556321,0.49405652096698915,0.4951568488400504,0.4605942628802864,0.41555065271724656,0.3883849920897253,0.4085546673471878,0.43594594294517064,0.45605438556952294,0.5042256179991305,0.5806605037588701,0.6744408029746034,0.7742019386861485,0.8734843724774453,0.963726286780425,0.9634161763436246,0.8724886885935308,0.7659975628531392,0.6687471942148688,0.5627717845860976,0.46210051711714106,0.4165659748152124,0.4573570341280937,0.4662105294368408,0.43857282202323145,0.3996080645571265,0.3549355165772434,0.3716247517103959,0.4229737869088348,0.43937452873221483,0.4503031819534824,0.46359286271851774,0.46638503399557685,0.43994995492738775,0.433733458750988,0.4566908314003686,0.46897949752446166,0.46976398753285364,0.4907729473633795,0.5583580462012039,0.646201668020189,0.7446935925224234,0.8417485614526443,0.9426561307366175,1.0,0.9443754490242151,0.8382978379357531,0.7298277312064392,0.6224483070781996,0.5249874308736051,0.429791373991284,0.43112447868911463,0.4741756011749412,0.45804802085286633,0.42381816195624955,0.38407558572648215,0.33587428359688465,0.3128481275157986,0.36539698299323886,0.39186603573499523,0.3952365439865062,0.4014576855783103,0.3912544411212604,0.368264007923095,0.33693295865022055,0.32939525290416416,0.34645036645416605,0.3690873948848217,0.360269741105518,0.37507936426515576,0.41114988599597346,0.49020610234213846,0.5856209706280042,0.6820658355326858,0.7863636203755866,0.876899209737021,0.9005700495620093,0.819003034573746,0.7217502775586402,0.6146292444239361,0.5153585260330811,0.4129441319400313,0.33263936798184046,0.3527546738072336,HB
0.6673022097679566,0.6772619948304381,0.6435824389114622,0.5547067277198803,0.4504957049944762,0.3571612322889377,0.2546165281477679,0.15494537325942415,0.1188013667962422,0.19514371092025806,0.28980164114067164,0.3581634072141877,0.444066597971124,0.5297437019604216,0.6193660318374246,0.7256155522926888,0.7767106621941555,0.719830025404014,0.6869557255036587,0.6934269809106985,0.7024432395903837,0.7058665462590095,0.6804903859266869,0.6752729561899589,0.7101360019855916,0.7240231646634432,0.6947390937978017,0.6973914362842395,0.7321409225769457,0.7473325114769174,0.7278915593045445,0.6641054041923486,0.5633850388978878,0.46394598990813574,0.3581963452846595,0.25879119573089127,0.15232735961728183,0.07959652234479075,0.12436079162304248,0.22600492588628285,0.3260926762985119,0.4347603030193552,0.5378880618101678,0.6401105467908237,0.7447539270276007,0.7895247533912966,0.7407314846537187,0.7088001781422144,0.69955307767902,0.6984507052547357,0.6972802525981892,0.6617874029429611,0.646360431910904,0.6710172683457905,0.683490693410298,0.6511200520572036,0.6525713548976042,0.6863464676154019,0.70482214547037,0.6912873438178111,0.6429728039778309,0.569987889656872,0.47814712988700636,0.37462407408496734,0.2652889056976597,0.15589754232331798,0.05278596427087123,0.006655839610527625,0.07371440590159106,0.17270152637315594,0.27753440484948255,0.3868788190884498,0.4921130330819987,0.592510518237904,0.6999247346995019,0.7644775455662023,0.7220341929078207,0.6982282478092925,0.6897819462710202,0.6900603819949414,0.6765932064934721,0.637753058522768,0.6363530196364255,0.6650029610011976,0.6639310205927957,0.6332579318559239,0.6484220858825704,0.6804274045459957,0.6928784709182634,0.6720488154591546,0.592046648386614,0.4900830942169283,0.3902415695521926,0.28478123164998004,0.18442952221181752,0.11740238268473124,0.16564405069346266,0.26050896355247644,0.34870006202266257,0.44194706787929805,0.5474405936181395,0.6568435540372382,0.764610139997425,0.8097930679691636,0.7481571596042835,0.7006795494804225,0.6999976949661701,0.7053726237295512,0.7054632779203631,0.6849342376877692,0.6702749846903009,0.6853658728114489,0.679653548199501,0.6604071059828112,0.6885131511524882,0.7257030699914964,0.7374436884519437,0.715762112721738,0.6470353706308098,0.5484229984509854,0.4412558439530119,0.3420608464397328,0.23460594883767927,0.1299380664994112,0.033264865702572255,0.0,0.07987645897648421,0.18487151974403537,0.2846316767461865,0.3664649838367582,0.4717941279046074,0.5781037070679629,0.6776780013118233,0.7705142308732582,0.7609108635035784,0.7258384611843671,0.7171974751340309,0.7208702789012711,0.7279152444295596,0.7070015013864523,0.6754235510947248,0.6871889680040852,0.7194443016008591,0.724291630193604,0.759512761941568,0.7778497501881203,0.7706247501534129,0.7722539919226783,0.7724739894800283,0.8140071478421227,0.8841861278503149,0.8989717629473555,0.8183683767005956,0.7168079000314842,0.6160807483123492,0.5121421779424495,0.5050552876346766,0.6052884978652178,0.6986200873848318,0.7577488405316921,0.7768865163583794,0.7748839869661768,0.757266585031902,0.7208584340430266,0.7195365915762233,0.7365266016655663,0.7220188345767347,0.71624072799667,0.7455496140558417,0.7581910440085116,0.7529516287261471,0.751295485456537,0.7793384193052333,0.8532890676694898,0.94435803753584,1.0,0.9407574170006705,0.8439846243551847,0.7404827076838578,0.6318482679780226,0.5641058711567424,0.6257845202904604,0.7021820810734827,0.737566632476311,0.7363197014997467,0.7153450848114788,0.6860318947146036,0.6966716614350439,0.718274933055882,0.6999460572889831,0.6808648856626176,0.7103078229732747,0.7308517462231383,0.7346859798317618,0.7387176029889182,0.7536555566406928,0.8155473669108608,0.8919671344355842,0.885176859673634,0.7967560031219483,0.6962626044660198,0.5933732021990505,0.4912631496462563,0.3872254669293209,0.38111144117039064,0.4826357220062012,0.5828628509439913,0.6789071356020857,0.7363206541089826,0.7584211632669029,0.7505718257274436,0.7223644705642291,0.6959155442556741,0.7181397035529891,0.7318003282478274,0.7059221100525881,0.7040151540675903,0.7427525461903142,0.7471125160832388,0.7472131785268652,0.7578348842580991,0.8010721459638037,0.8785789649222933,0.9352051569742779,0.8898417213330667,0.7933474282778725,0.6849999497021813,0.6066381242397649,0.6630158717904209,0.7396973694167053,0.7788108198587214,0.7939223605800518,0.7804862320596735,0.7482512239222521,0.7485781734908641,0.7671602032341491,0.7518931213317708,0.7164234199378239,0.7299068778820552,0.7637291772064203,0.7585071275717534,0.7489353284636402,0.7361957827251806,0.7482983502343505,0.8154824659632363,0.9035385372689597,0.96987986014445,0.9263101615357701,0.8310900097008114,0.7246977748492407,0.6276764779562813,0.6374659788939523,0.6998666030265093,0.720916859000043,0.7134596678391558,HB
0.6527012334838238,0.6553581643131898,0.6461719701091924,0.6815087298243299,0.7201564817712649,0.7593723882367285,0.7445201637911869,0.6948964534107382,0.6388616976158357,0.6278109521988577,0.6728548551429485,0.7337182699172518,0.7389711854413346,0.7165309211066866,0.6916119228745683,0.5868539814295475,0.4683887611175055,0.3452778179153939,0.22246934342083913,0.1220888642640805,0.14908318478383098,0.26171210172197146,0.3944228419557856,0.5204870147658074,0.6483244890359625,0.7161393387230981,0.6865354621638566,0.6623142217182014,0.632814020425239,0.6119452191870365,0.576584408883213,0.5672561599068664,0.5933538017682753,0.6156415862779259,0.6733643040067916,0.6997735121211761,0.6689282784001489,0.6075602492385244,0.563045911224509,0.5498466618244255,0.6033155658823883,0.6633094804071145,0.711682302669502,0.7359153232834883,0.7098007785981468,0.6089488946132877,0.49498406856623056,0.37276318292235233,0.24626475100393108,0.13380788535151034,0.14573779244014418,0.26220899668956266,0.3885816978311114,0.518168444804981,0.6415445998178506,0.7033830415537294,0.6564992092945632,0.6109550734191274,0.5827974723156593,0.5514342569905413,0.5242596407298956,0.5302793165280728,0.5533257003340464,0.5856146518952561,0.639706879260896,0.6864111258119476,0.6913716597095121,0.6504186643769905,0.5835058997273754,0.5297620791593065,0.5240252341401654,0.5827428607541045,0.6454721718546459,0.6769096005945583,0.6636163602398635,0.570426808830947,0.45314484141427736,0.3322830723413883,0.19916439986472678,0.07785412554356164,0.0,0.07055511907217982,0.19185563288470897,0.32412105812574943,0.45084329222219566,0.5795540891935791,0.6932078329337759,0.6849206510265091,0.6595878547553182,0.639515861515644,0.613274156659398,0.607874901510411,0.6572159377784867,0.6833308718560263,0.7082514147367212,0.7614086997263341,0.7968809342839234,0.779520209918954,0.7232911533081454,0.6718529976330667,0.6682443666682176,0.7122078207200238,0.7816419923741109,0.8258297212091619,0.8098626791525296,0.7666486456662147,0.6681405966929672,0.5500423087130679,0.42403874423603005,0.3022506845014217,0.1787941262779129,0.14511715279200077,0.24620248132271216,0.38279384175287534,0.5076266312862452,0.6383729781376353,0.7634260634356305,0.800213952251251,0.7580818764754489,0.730744315095595,0.7017691612614296,0.6720882087438023,0.6443272633035884,0.6406968967216251,0.6578451275707753,0.7029760608909337,0.757270799090235,0.7752555079391965,0.7336838772262455,0.6702126222700424,0.6253164627233998,0.6430141355266032,0.699715764066303,0.7523005631039497,0.7705276153463423,0.7904923331264659,0.8380461353491881,0.8272582629975758,0.8074699223835697,0.7578846102991705,0.7072126751517898,0.726493432478033,0.7858415793242122,0.8322674323959185,0.841614114290798,0.8001576348131585,0.7470612835597388,0.703300962434815,0.7062753638362418,0.7273588289998627,0.760361724173785,0.7894022795494777,0.8124018612925563,0.8741248541275111,0.9676921451201341,1.0,0.9172143126369745,0.7968979024597451,0.6732168387219879,0.6768627032561838,0.7789869298046082,0.8566181746955115,0.8851085645077004,0.8809278720401772,0.8378106487597807,0.7708009322736444,0.7271637424344544,0.7622954787740812,0.8215054291125101,0.8590819438897008,0.8548275944291426,0.8179507455716939,0.760224877627945,0.7359548756889462,0.7123865682873354,0.6809971989276402,0.6964867538915143,0.722420112917709,0.7325843064205095,0.7867580662983467,0.8624488294807708,0.8430746906975464,0.7329467501099307,0.6039051953592631,0.515691472487986,0.5795995249162598,0.6817119891061938,0.7461419777531728,0.7510654305024449,0.7218011101558393,0.6781326524009126,0.6160441223102624,0.6086396178343576,0.6688767014572741,0.7224620736005258,0.7538052087551939,0.7471064470860096,0.7084821534062651,0.6574611518299869,0.6382875932980783,0.6181777016326246,0.6011889356894193,0.6332625603463766,0.6700842050500704,0.6982964268646508,0.7559095824579893,0.8466375166689653,0.914369748110802,0.8614059213710372,0.7448562635881579,0.6311333071387186,0.6679222551243313,0.7631359363800314,0.8076719203641143,0.8088830018531104,0.7829375104853193,0.7281412079194629,0.6705988740564983,0.6259483589022863,0.6579394222511135,0.7151054006989725,0.7592387392811388,0.7910023483992226,0.7552638960266829,0.6948202661393759,0.6617955088378729,0.6543234839285099,0.6371701442843398,0.6732263097841797,0.7093359481673214,0.7364085822678397,0.7680205388184778,0.8430157095383115,0.9140462161469833,0.8566712050721788,0.7393115446187606,0.6142126348691752,0.5634965951810327,0.6520696847077936,0.7458979248193449,0.7914571377000041,0.791594508966909,0.8138233621892841,0.7967634623092232,0.733125336061903,0.6906715342374192,0.7312054298484489,0.7817245010923837,0.8257263875227503,0.832537545575168,0.7901428638208592,0.7493353862565661,0.7221970835430973,0.7310586949925608,0.73349829235441,HB
0.4196372154523491,0.38652069071010553,0.32627443871902306,0.27524498679212916,0.2652317496249794,0.28870335566606453,0.2808710614174812,0.23172298670122382,0.20737984805980236,0.23038060106855296,0.25852417747878986,0.2346179416354306,0.1752803547640318,0.10400971315318452,0.053719377451324934,0.006200154774433031,0.06193539298105133,0.16124195699418653,0.2678192203131302,0.3799474316230049,0.5073686838664564,0.6117038203881662,0.5733379838570487,0.4684605540049658,0.362264473235252,0.2658753917947174,0.2094452304928569,0.2023782895550914,0.2196796702916104,0.23933639775924487,0.21360445770718828,0.14891315857535448,0.09293100444916069,0.0970962841388836,0.13877836794307452,0.191995438426805,0.2003145114021021,0.164765931243386,0.15447852792675976,0.08905676320341582,0.04345188730964766,0.022784220889532136,0.02735601049436376,0.11849784255771434,0.21972361001494756,0.3285071434386775,0.4427720485995472,0.5586562331517402,0.6215194230557719,0.5249570520498361,0.413684740304614,0.31191258497582863,0.23870155291346906,0.22735212111551784,0.25051671457382607,0.26044628281558113,0.23360801911798568,0.16871555750513023,0.09879598566218606,0.04676432822034293,0.058484363890376034,0.08899368699136012,0.09804740313758709,0.0980124673430911,0.08600880783897313,0.039823803632682786,0.0,0.005704829820605717,0.04698900693833208,0.07932016796382602,0.08944340647599391,0.044258891661101085,0.025330761894543308,0.025409599846989206,0.09895962515014167,0.20599519988519788,0.311925744312167,0.4284360212635585,0.5446594312264437,0.6356163657395348,0.5855284298561667,0.4807752246522736,0.375044317168963,0.27668714685684836,0.22903572902892755,0.22787063492884796,0.24874319700300118,0.26108733670309325,0.24069842928886231,0.18776829769637127,0.14550663424670107,0.15371842490242216,0.17263260521726043,0.14901052108558366,0.11177368946600552,0.12011108983448349,0.17323314084509045,0.22122126551369625,0.2567407892411322,0.23942419756777422,0.1903335892484601,0.17602503132793768,0.1622682657296357,0.24485731474191397,0.3486207424459522,0.4586200468710988,0.5724010557850439,0.6899693328078071,0.7934605191284643,0.7700623049689543,0.6587562048437996,0.5387674748127576,0.44520056021002175,0.40881272168229676,0.4112399798192947,0.43270042815273424,0.4374416275810593,0.42852674511003874,0.3598919263060054,0.2883879375927272,0.2674889429769327,0.30286149233517223,0.3348803124227322,0.3142173816238292,0.27546400147494676,0.2971438127044572,0.34701458538747376,0.3852155850352377,0.392519771853324,0.3628373207159301,0.33004496884572854,0.3801233333235676,0.4480469112822316,0.4947927750563874,0.49805826716297474,0.4861152698074238,0.46075319150569793,0.4937392071067128,0.5925798367363955,0.6989607324341431,0.8078791644619638,0.9215989000104838,1.0000000000000004,0.954484983532264,0.8486207774217642,0.7300964634862934,0.6099390392821435,0.4959965956671044,0.38491726810914306,0.29495496213791705,0.27565107471042394,0.28755383625412234,0.31894601980311377,0.30825941187593564,0.2785958275432616,0.23371884722251002,0.18142250926398873,0.19653879799350715,0.23765889025611298,0.23220922745048345,0.2052228835500567,0.22203956153164706,0.27708313579090404,0.31903963376200606,0.32635612782380186,0.31625172302502413,0.2955574448770171,0.2981279880010783,0.3582210830175674,0.4584540589591848,0.5716862509953478,0.6872033848345711,0.7836780880772198,0.8018594810503314,0.7200816889892594,0.6103995601868899,0.4962500456472392,0.37342882508665953,0.25234189615261293,0.15439602712402367,0.1055147545487074,0.12041395312240644,0.1463747037103551,0.14181082256928113,0.11092279608079991,0.06885609197945453,0.0626498109395226,0.11098457025071884,0.1445508266811375,0.14782774211626348,0.15432976012122968,0.14888612390915856,0.13334478363433133,0.1210190369128945,0.17610244209029435,0.24392744334506666,0.3021772340186568,0.31981828878938234,0.3188073953422026,0.30227267094857524,0.2905658466230632,0.35525685146143626,0.45671185196841124,0.5607576968956565,0.6703311957309723,0.7694474017447681,0.778238738920066,0.6839560476968636,0.5734193585363356,0.4594411853570808,0.3457142407796123,0.23854243079128423,0.15965130563474972,0.15866534398396226,0.18190017490747534,0.20890339981563022,0.22606378761256574,0.2653797306088044,0.2553249245136886,0.20565608411968928,0.16678094668476007,0.18838617387178846,0.25289948049352384,0.3017174616153304,0.3000418872722528,0.27856519756916676,0.26025400010610156,0.27883389257713453,0.37008477415952035,0.4759621257686568,0.581429838970684,0.671096735894098,0.7623930336554863,0.8057502512392873,0.7284042286757741,0.6186451171671448,0.4995708240051613,0.38547903785338944,0.27477305075024994,0.17353536601588138,0.1454757235128583,0.1956898529902098,0.26146471652041914,0.3030942340234444,0.3112534703919474,0.28653423789752797,0.2673082216686473,0.30853715061330034,0.3477263161447106,0.3437531350955525,0.3226623520567631,0.3494135867752939,0.4109007569641214,0.4654455384302385,0.49342826359024805,HB
0.6910888809024676,0.6877892529969989,0.6765451538065497,0.7087369698579717,0.7861833310477935,0.8353356150437827,0.8434761212355246,0.756912993818871,0.635312959896793,0.5055247817675368,0.3820761675502591,0.2531318127093378,0.13981166316580618,0.11704451827008722,0.22461243377657114,0.3483678571576343,0.46764206998913194,0.582675172558683,0.6860479320171482,0.7312038985857492,0.7005400726440141,0.6600535760902138,0.6184041894421424,0.5804267813169726,0.5752798151573963,0.6231337014201586,0.6843299751349283,0.7164654130657104,0.723394766224597,0.7263544727663453,0.7049644983456536,0.7011978679773838,0.7599024842729221,0.8102284238946709,0.814664777402911,0.7228990373084132,0.599722013797733,0.47591212221897017,0.34772681594871324,0.22406704911159325,0.09895776931918343,0.015506585607248269,0.07442918175957036,0.20647418977711274,0.32991306422327504,0.45176059552472125,0.5690986956141479,0.662158566231104,0.6700647780235007,0.6246985662876283,0.5793150961736138,0.5505683635993126,0.546011536625223,0.5776458415615799,0.6539216369375103,0.7087841393053584,0.7219872958400515,0.7043469435638516,0.6766635824767748,0.6441954814389494,0.6693654550698445,0.7352708634706544,0.7887113778018384,0.8114471972753443,0.7424221122449084,0.6198581764070572,0.4901576738596436,0.36700437281805964,0.24198121482137713,0.12077564447686884,0.04852008395433938,0.12183183938656095,0.2545214747571056,0.37567474156241687,0.49439695057376065,0.6084793855362696,0.6922632081051945,0.7123909725617215,0.6805392530217227,0.6424834849783885,0.6034948874072841,0.5839078209438262,0.6145947310367039,0.6821589932119738,0.7380459464282549,0.7525988911421093,0.7536761188754326,0.7240346400363586,0.6818203622578851,0.6719201638321723,0.7214970106968877,0.7626618382533326,0.7840590646639427,0.7216051331013316,0.5987494243474956,0.47464352567036006,0.3448072909120845,0.21944503808229987,0.09379137327208875,0.0,0.03820886276965263,0.1585539372314435,0.2946444588002026,0.41933047186124783,0.5346440804008261,0.633836681163582,0.6553478673533286,0.6222654838665047,0.5868463002414455,0.5484072827492583,0.5323643104929272,0.5664511608185161,0.6262842529253065,0.6918703012152063,0.6900484765095856,0.6651479453415239,0.6546599127817809,0.6559345396358589,0.6908935865873218,0.7693719922919837,0.8277155840090864,0.8457721830473157,0.7705974341279549,0.645408801111619,0.5195242856049411,0.39568709882574016,0.2658869878484049,0.14398203989221026,0.05264283196347419,0.09855402608956698,0.21795322024595887,0.34419240488353964,0.47588653722870644,0.5947581639372324,0.618667576716379,0.514138522852158,0.4423548752238049,0.5277381728433381,0.6554248344168987,0.780127153020139,0.9033597267369702,1.0,0.9772435162059185,0.9003422113033612,0.859115504708889,0.793547072059472,0.7241659557601867,0.699403988197294,0.7093808855956572,0.7373882319306873,0.7518212504903863,0.7208089088902478,0.6465216793214705,0.6018771582807525,0.6035998426299147,0.6399103285432459,0.6736282797890096,0.7042048257210962,0.7066726470679172,0.631802144043693,0.5140168887413012,0.3969630538305746,0.3426135602536817,0.4412797761522813,0.5693936149987509,0.6914236571836261,0.8118400625623865,0.9084509000742136,0.899158089215923,0.83215147992061,0.8167076463677878,0.7742474408145306,0.7445148698813671,0.7801411593752694,0.8067495990794842,0.8083827593648496,0.7946520948934328,0.7429270122367182,0.6740799538908213,0.6475359160132959,0.6773818016089748,0.7174066198046698,0.7507520700015409,0.774716307191476,0.7519369054434546,0.6836591258680018,0.5704596483671347,0.4473537434105621,0.3439771001197425,0.38831991528660303,0.5118108122345557,0.6404816035671299,0.7634569611202853,0.8748724916475554,0.9500821968760302,0.9230460703471057,0.8529186151353518,0.8192354910147412,0.7535926020655634,0.7020299233668297,0.7225922479322642,0.7497472114217576,0.7678981567483585,0.7690469144739049,0.7382938542496147,0.6667754722161359,0.6034059335406745,0.5965755691009353,0.6259743454671076,0.6719060645895709,0.7214991151001557,0.7463113280146061,0.7053670266848253,0.6074993891073199,0.4840961740158112,0.388104656393093,0.4545710087584096,0.5783774340518573,0.7064581940051133,0.828394239635637,0.9349370012722065,0.9392542908291737,0.8722323537057672,0.8430103767771544,0.7835809569174645,0.7537472027574941,0.7758420402371593,0.7750474065639272,0.7717139440368004,0.7599349455937454,0.7115548322292682,0.6450120824895458,0.6367150410336602,0.6758991018745886,0.7148669969779262,0.757647957732301,0.7942491268316356,0.7813319198687143,0.7090895150419061,0.6018299772770423,0.47801724426051395,0.3791418842993366,0.4405212511209813,0.56377800884803,0.6881331383570126,0.8118612271159376,0.9275820744753398,0.9908663866922232,0.9319478536183059,0.8843542436283474,0.8340371296810547,0.7578384820342241,0.7271479500364726,0.7349609677918454,0.742143879963598,HB
0.11806940356385764,0.21652177099324854,0.308502285506282,0.4013720982069713,0.5029367562834253,0.49497896989826495,0.36749822146071587,0.2352780549095015,0.12543640697904568,0.09879698565212047,0.17547818458324027,0.29246629599822205,0.42493402569754624,0.5820401294752311,0.7283736285819904,0.7248600566709813,0.6334185707788516,0.5731305498305144,0.530023534093806,0.45451975580668247,0.37673321820046546,0.3765603692821773,0.44071365290367615,0.40749960660673334,0.2958515173206768,0.25676817552098763,0.3584449185230758,0.48730446088386126,0.6108909918959107,0.6461340333482997,0.5346300388438507,0.38049037410586806,0.2306598719278372,0.0918147641414353,0.10038148116288514,0.2381705755575405,0.39625620762953817,0.5485979535905909,0.700984880701311,0.8035689776319623,0.7238557011927953,0.6218215529730386,0.56204307805851,0.5517224447389091,0.4651420811391036,0.35004373008014644,0.27037607524989093,0.30330816959002904,0.37554373316648526,0.38874477101190275,0.3129507527094497,0.2246591331335419,0.27854913958946126,0.3913192460753403,0.47565234331585327,0.4285568004098894,0.28620349753126106,0.13171020816962464,0.0,0.01899066184682452,0.15819525781315713,0.31497420002674925,0.4642019645805635,0.619851404767243,0.7121487634532153,0.6275231808221275,0.5300504317160648,0.47141185907277716,0.4357421721358805,0.37769404377710325,0.27738265731031175,0.21253644512129943,0.265355735168749,0.3299287611077806,0.3749482625383491,0.3387540245143854,0.29272407237932185,0.264741287070414,0.3476919776761296,0.4594473558327081,0.5051081063270226,0.3960367376524867,0.24231395677681666,0.10884570592651821,0.115099272681908,0.2581549797202154,0.40709360559110586,0.5613788360808498,0.6865049372819549,0.664084943868342,0.5826960903596881,0.5421113480190223,0.4812174184839191,0.37210334720606353,0.24383225047075774,0.15291303504302745,0.19996612869026853,0.2951515690248887,0.39937407185141804,0.4570965740277,0.41827459653282073,0.3572793172474511,0.38952592427558974,0.4841047809767165,0.5080951259897253,0.3959937771525386,0.24937494514284575,0.16005613774695204,0.26030390402686177,0.4192060039029184,0.571149503411049,0.70477004653746,0.8020640884065764,0.7252056447427093,0.6184437057176408,0.5484448509005544,0.517201431274013,0.4389599140604812,0.3540038514944519,0.3210258610242698,0.3862283629475054,0.40897772196794513,0.3254717073776874,0.27911956447805375,0.35817571463117925,0.46829292190234195,0.5305062717712605,0.4675875996670791,0.32240507309358746,0.18569691393352494,0.18692837748125246,0.32357361488543557,0.47965716876260966,0.6355684652989466,0.735525073105165,0.6631373691700384,0.5917407982619021,0.556164510307168,0.48909910960580083,0.41986893098848954,0.43840349350556185,0.5156794942374434,0.5913320554378276,0.6300180391154453,0.6911957917129339,0.8086646263344268,0.939810140963528,0.9603438467877634,0.8310285815053313,0.7129770247487253,0.6580851303463997,0.5826364081453805,0.48539471345436747,0.3853071920911071,0.41114715057459916,0.4761784364275088,0.4449432445895969,0.39229510673290147,0.450458315141276,0.5380060877844515,0.5988195073058091,0.6500687256724023,0.7565615289080418,0.8871953983555496,0.9920279929781093,0.9330163615891562,0.7867906810575072,0.6448794132564277,0.6354103259128028,0.6530320531683889,0.5755459966431968,0.4844970195585723,0.4540778383770845,0.5293272409037506,0.5457946214253853,0.5022674639173017,0.41347191683594664,0.3207656783677937,0.25609992506645485,0.33778957601432236,0.4646808685565782,0.5732302545456869,0.6307960446059928,0.6993813303544276,0.811083741176033,0.9278115837197976,0.9505332587970687,0.820839540083468,0.6772036301374267,0.6134285866819242,0.6616079391400098,0.6162036111813047,0.5241716609118385,0.46136786327615154,0.5021572923630178,0.5514651542967735,0.5309838852130193,0.5232144471113895,0.41848349048221456,0.3541808877999131,0.4023669394678824,0.5014521898039677,0.5888411987899702,0.6633544056823797,0.6996517604807293,0.8096529875922851,0.9047577151937398,0.8406106805261535,0.7062553950231258,0.5551958896347728,0.5227412066264558,0.6049746552998143,0.5906482859405857,0.4974629077442061,0.4319475789155587,0.44317330182887105,0.4865706057535877,0.462090035932492,0.3990439299738249,0.4238153351387872,0.5374507135292244,0.6387559337127646,0.6910531982970816,0.7121429368059533,0.7888089943167915,0.9132001321341439,1.0,0.9118419197257124,0.7606182156591901,0.6436788761675722,0.7025518897616485,0.7342979644423879,0.6604590902417624,0.5384121174119878,0.42138833861335856,0.40658055348714406,0.4974434819517799,0.5068008659091303,0.44114045368292176,0.44116933307504747,0.5260496043949061,0.5933032427399092,0.6312322776835968,0.7066275539805313,0.8258612047924987,0.9533008315835292,0.97629375658504,0.8484756570503049,0.6966149368311774,0.5885965945015714,0.6385363257960042,0.6140300079796019,0.5368560479682283,0.42991053313202654,0.36784888908162827,HB
0.9148244674476169,0.9253703683352273,0.9047092846890622,0.8313792326928177,0.7459559240555435,0.6606371355351607,0.5722185126482865,0.4836112657737374,0.39500422237421146,0.30666370165916823,0.22159622895264258,0.13477888330475177,0.048122702679342926,0.004110599825844989,0.06310434626709477,0.1506606636530465,0.23593102146358963,0.32249589819430796,0.4110035416906651,0.49723547558804987,0.5827998439624655,0.6710251125767039,0.7561169906036961,0.8406936905921925,0.9221871332433805,0.9748743056611248,0.9695551030121113,0.9279017537492643,0.8676250356633096,0.833112185134701,0.8686951190875684,0.9118329287380211,0.9387485215570405,0.9410813026647419,0.9097631135728316,0.8319444937719238,0.7456951903437853,0.6655406005257646,0.5924894771855265,0.5122215921120323,0.43421194252542267,0.34727671432448626,0.2593265765332265,0.17472311250142206,0.09299694174945108,0.08612680199614292,0.16252397346018732,0.25041689543890056,0.3383689295978771,0.4229923554819036,0.5106222277699851,0.5983572034647743,0.6829581118839962,0.7700308419715624,0.853457716588932,0.9293089787551645,0.9751666580807218,0.9662940094915641,0.9126555050705195,0.8527284422266819,0.8064010182598662,0.834592715303703,0.8974363184057119,0.9397831672616488,0.9448164915399481,0.9363770181425828,0.8727709565359293,0.788525024807455,0.7019639582027788,0.6138898165475811,0.5291784366590709,0.44178697082662816,0.35318970398768007,0.26458235238235517,0.17597989883774914,0.08841089560668391,0.020001246506469027,0.0467510630437755,0.13148178396096838,0.21609107417804257,0.3037583444847772,0.39235584242529936,0.480105429473312,0.5647095352968278,0.6525072756315285,0.7387132931323919,0.8223638179413871,0.9032275559727521,0.9652615219324937,0.9726527420112384,0.928561536349787,0.8663526062545683,0.82297683862546,0.855403029894971,0.9086322876660112,0.928314901551884,0.9178912909549639,0.919645669132791,0.9227557790740475,0.8818241621420004,0.7997176056227692,0.7152426158242245,0.6275177854251206,0.5411502679799386,0.45571146710903143,0.36726781704770617,0.2790050969617856,0.19410749532584648,0.10709152492824323,0.023261910535060167,0.0,0.07312431852359863,0.1552261477042419,0.234117700511002,0.32210508502371743,0.4106706775045944,0.49719604422834024,0.5825014484814051,0.6706769626036555,0.7557032643086196,0.8389799894654301,0.9170742216309602,0.9675578086848774,0.9624420801381535,0.9133222062402737,0.8555978140469204,0.8350871779803046,0.8815372183131446,0.9241028230200682,0.9389617269111445,0.9047321916645975,0.8218298177681793,0.7350510301461362,0.6499689636689086,0.5619329357999233,0.4769725155535372,0.39001093562493944,0.30249006709352044,0.21787996433141277,0.13526845414054323,0.11855204249391174,0.19238449973556807,0.28067024137865576,0.36723290535632847,0.4525074000103715,0.540849829947736,0.6270499833415419,0.7126431325175725,0.8008546964004853,0.8839671590040351,0.9507728727730749,0.9796477428281277,0.9452405957653051,0.870459338477415,0.7880057225968068,0.7017323065793969,0.6175559286619607,0.5594367023920491,0.6096533156897277,0.697075504434043,0.7828821036681767,0.8680251484645087,0.9455180587336758,0.9660836630937265,0.9546835847368181,0.9257046059692143,0.8773281966388797,0.8637324143699947,0.9171821162005247,0.9712004997380422,0.9920140711894175,0.977029669631671,0.9188640500228755,0.8396721844105062,0.7558043306257554,0.6708303467262383,0.6205253106086122,0.6801916027811522,0.7664199551211088,0.8511150599909402,0.9328624118915572,0.968968194304309,0.9457955282654475,0.9363608964158386,0.9409997826564794,0.94665187177384,0.9158856473837723,0.8630547272561699,0.8665813151847964,0.9279093898234663,0.9801130581200878,0.9970279012847133,0.9796978207536945,0.9187236569200911,0.8388967402701164,0.7552311091155496,0.6690744630527623,0.583813387549806,0.497297074036022,0.411328544366708,0.38777977510362666,0.4638024332392007,0.5522913960732426,0.63859237275615,0.7240470642257638,0.8103231207169675,0.8956192343580547,0.9719087937935195,0.9752659252381956,0.9660242709585983,0.9561454604381222,0.9112733988116791,0.8518508695328983,0.8472806440322099,0.9079504168351769,0.9680131264128963,0.9989608255800962,0.9836247838204163,0.9284590462053234,0.8518784277850808,0.767284471593029,0.682578286954579,0.5954019229782377,0.507642137306719,0.4600870378645809,0.5232370938725275,0.6115512619695214,0.6987564679276645,0.7835393524583887,0.8698243848419199,0.9437066883469265,0.9637898557308435,0.9656299373930165,0.9466597952012674,0.9135060692308492,0.867150384653435,0.8741051361652303,0.9322882844470162,0.9797989737971516,0.9999999999999999,0.9769960168742401,0.9089488338169862,0.8286028259535512,0.7450202866691683,0.6574935155559475,0.573596867350558,0.5337784167247656,0.5974366111175258,0.6844923402629659,0.7703213722793149,0.8529026215532618,0.9275461475173851,0.9584943920073279,0.9445200855624015,0.9345941298092283,HB
0.5142673291335915,0.5810228902217367,0.6096998208074773,0.5207850230371509,0.4138844757042357,0.30097395703656926,0.19483757767129295,0.08796557446637054,0.026213969326868147,0.08720590687400809,0.19450843865892042,0.3079089115695339,0.420309283797059,0.5170494199640547,0.6060329466168521,0.7085732218879317,0.8143497465420071,0.8929027036656414,0.8743032056073698,0.8460847046299993,0.802892039789662,0.7641957083312487,0.7525789262184781,0.79271467166882,0.8363896123299746,0.8489826021272122,0.8481547254878865,0.8297433904097204,0.7926602513382317,0.8015306426145179,0.8546443032822533,0.8805703267436498,0.8359490612319906,0.7346520688841831,0.6258677747425268,0.5204382084525916,0.4081917887164217,0.30298271843187585,0.19267413850256143,0.08104337038146836,0.0023494742816025926,0.04347362937660426,0.15234991106606932,0.2658317586046026,0.3793217767269008,0.4909902864639357,0.595568964585111,0.7074176583487242,0.8129106339480734,0.8695648160836857,0.8489832342484112,0.8148232285970198,0.7766671104312497,0.7530152247600406,0.7769386227387274,0.82336105013128,0.8477158224838746,0.8569505868650567,0.8469296515585423,0.8144056191991902,0.8253360559543792,0.8788405752503257,0.8993767814149363,0.8407108062755044,0.7365994682506383,0.6313263761842893,0.5199759458027633,0.41541215729254466,0.3036338845764217,0.19317968690299092,0.09042406515116852,0.041712780228769564,0.12011072568389158,0.22801329466926878,0.3410058593802918,0.44703664773049656,0.5562856071327185,0.6695014952497349,0.7764122890725011,0.8694855561668013,0.8794557885266705,0.8483958407736993,0.8065402293434245,0.7658605745680109,0.7556020024095016,0.7934637058066776,0.8348510370905975,0.8493047996508405,0.8522204468345633,0.8412205537392727,0.8170529781532447,0.8408283043957969,0.8891337357993032,0.9056513887950552,0.8389624251378558,0.7333139438416596,0.6284733814231436,0.516355659709623,0.4171345794222612,0.32942564246190487,0.23517628884938935,0.14175262844037184,0.0606039049501359,0.08421692072669207,0.1846079534094558,0.2953329631776831,0.4082979002590079,0.5138876088100244,0.6236782753784904,0.7363072580339625,0.8395180504556639,0.8954601839182719,0.8710421837445008,0.8383696293165503,0.7984702028427275,0.7729935184367547,0.7946184432945056,0.8406391890309874,0.86460507734504,0.8612407445386607,0.8417424616308125,0.8039777594072797,0.8135652126109434,0.8638776860173294,0.8824650031109085,0.8259003397155731,0.721993413436101,0.6145288712987469,0.5056537479784067,0.39944107864882605,0.28641963165425377,0.17844357545012057,0.0722695152846824,0.0,0.04733556662819294,0.1484057919087538,0.2611149916844946,0.36767249594371587,0.47630804140035843,0.5892411425864228,0.6949256633809067,0.8028178501935945,0.8639350589742405,0.8430746108412059,0.8110067301961668,0.7731113100266571,0.7862651737684525,0.8308473514833501,0.865180932928703,0.8966984388756905,0.9475437711820962,0.9293875734355803,0.8309264010471871,0.7258213085963354,0.6191289954246963,0.5937607998087735,0.6924631920158966,0.7834088416353557,0.8813520905914818,0.9662631850573205,0.9595669552579607,0.910518999249118,0.8688330963495836,0.8381294362269258,0.8741813498059774,0.8995587320720932,0.8988598528379985,0.895307504739492,0.8582488633065328,0.8154623441409183,0.8219647612892611,0.8603030701472691,0.8961369478111598,0.9344470666109823,0.9837301546904309,0.9586982890408657,0.8631356937615833,0.7547908041753357,0.6418859835599018,0.5700739656467431,0.6444461035264808,0.7496019857775513,0.8560978764156209,0.9551610583343211,0.9999999999999998,0.952998067082482,0.9162138492091996,0.8659624510369806,0.8674851106130543,0.892848801865082,0.8863677142867152,0.877670265391399,0.8434499566402083,0.8012939274782098,0.8101791208740579,0.851242558934578,0.8900859225883015,0.9226618573814569,0.972447603325332,0.9479604035515734,0.8450673354234344,0.7316999260046051,0.6205970925638629,0.583731574819855,0.678724870637178,0.7831030179132639,0.8877747044427073,0.9746239292183254,0.972844322685819,0.928979898551672,0.884834513184422,0.8556775412984094,0.8830548616324603,0.8892867231557144,0.8834298792205588,0.8635204026775047,0.8220501401704545,0.7961735188523638,0.8211847642305388,0.860244877933199,0.8935876265863987,0.9367138107676005,0.936894813054044,0.8466958048254816,0.7369733503547764,0.6301125627406834,0.5701419168948365,0.6431911059562971,0.7513411481738235,0.8568981864683185,0.9537299752717996,0.966059927652468,0.9121175226606295,0.8763494692607365,0.8349332582842306,0.8567691665678894,0.8821616662707321,0.8845601220773134,0.8741865077916142,0.8325520580834598,0.8021452548949763,0.8234390782191146,0.8666370456556474,0.897889121724156,0.9382097395184201,0.9843806071947527,0.9350561981229475,0.8312126944579366,0.7256393657260123,0.6414110549817713,0.6951947934993641,0.7989181597289035,0.9050523117780751,0.9841119560636471,0.9707270971475983,HB
