0,1,2,3,4,5,6,7,8,9,10,11,12,13,14,15,16,17,18,19,20,21,22,23,24,25,26,27,28,29,30,31,32,33,34,35,36,37,38,39,40,41,42,43,44,45,46,47,48,49,50,51,52,53,54,55,56,57,58,59,60,61,62,63,64,65,66,67,68,69,70,71,72,73,74,75,76,77,78,79,80,81,82,83,84,85,86,87,88,89,90,91,92,93,94,95,96,97,98,99,100,101,102,103,104,105,106,107,108,109,110,111,112,113,114,115,116,117,118,119,120,121,122,123,124,125,126,127,128,129,130,131,132,133,134,135,136,137,138,139,140,141,142,143,144,145,146,147,148,149,150,151,152,153,154,155,156,157,158,159,160,161,162,163,164,165,166,167,168,169,170,171,172,173,174,175,176,177,178,179,180,181,182,183,184,185,186,187,188,189,190,191,192,193,194,195,196,197,198,199,200,201,202,203,204,205,206,207,208,209,210,211,212,213,214,215,216,217,218,219,220,221,222,223,224,225,226,227,228,229,230,231,232,233,234,235,236,237,238,239,240,241,242,243,244,245,246,247,248,249,250,251,252,253,254,Target
0.8596893803314214,0.8522113552231718,0.8646112562559689,0.9000615937128897,0.9374542245497555,0.9353002200127636,0.8845748094537174,0.8320702866483285,0.7948333755555685,0.791635476533985,0.791989713674554,0.7840966114915671,0.7725780133716973,0.7965693871181325,0.8124979178237792,0.7937534021261392,0.7365631808245485,0.670788090854229,0.6058077948300227,0.5383256363692328,0.47388176777578633,0.405696391981419,0.3404468342437221,0.2739531419789392,0.20777902674953685,0.14223115488144655,0.07484787612676069,0.02155200024633555,0.04093705678346182,0.10733383836375604,0.17312619162909193,0.23909336279106264,0.3071271249147311,0.36541721123926557,0.42718223927249116,0.49583929235875696,0.5627848321523388,0.6277092511211546,0.695784716611159,0.7601900575782401,0.8233918564454166,0.8424238095916423,0.8362036091168192,0.8455196470806254,0.8724533045132374,0.911650879262589,0.9356867051411379,0.9007838288324557,0.8495875609281487,0.8130203799232951,0.8095418954428,0.8160840879306344,0.812395718498619,0.8055562946470192,0.8271488744218969,0.8288543502947032,0.7832000483614283,0.7199249762112554,0.652386598140593,0.5885643436535615,0.5304667592043486,0.46474248724536565,0.40030232230618984,0.33276736691396397,0.2673339770880846,0.20100672578792877,0.13375286845260737,0.06911176569388622,0.005996185155240835,0.0,0.06089225672317822,0.12979311033580682,0.19874100431041725,0.26705631316978157,0.33146004653395583,0.3992700035524967,0.46673932998793105,0.531308705459858,0.5997108577616257,0.6655230629389217,0.7313977609074462,0.7953454068999473,0.8467438512254994,0.8556971015956956,0.8434948117718957,0.8481840971403414,0.8757657509045194,0.9143014639107667,0.9593590024006162,0.9644663049977407,0.9160452018521206,0.8601237665301062,0.8237615675027417,0.8185599086865938,0.8236023019424497,0.8182354829553029,0.8126275384397157,0.8362251302639123,0.844312651711218,0.8030079044708012,0.7407423121930541,0.6757393593829673,0.6113096064825738,0.5428941014968043,0.47394575514623355,0.40501919733052577,0.33800562756270175,0.27353763443486556,0.20922363807394673,0.1443847035240715,0.11131378266567027,0.1554175422714288,0.2221688255848338,0.2910856807707137,0.3586090335362219,0.42315246475306084,0.4916207795371296,0.5592352885026575,0.6237212853008947,0.690881927851626,0.755341870104806,0.8236327815370215,0.8792023626834435,0.8754656961165199,0.8602801653897043,0.8621776015305413,0.8845663620712882,0.9229945944678848,0.957082942748888,0.9359849901254642,0.8829847627932801,0.8335952171650172,0.8108141720212763,0.8129866517333142,0.807507287787349,0.7905961615429202,0.7920659503530689,0.817796759862615,0.8333773162500633,0.8237227635239575,0.8138104200277188,0.8248035119096724,0.8301115467427773,0.8332861264842013,0.8703959905979524,0.9261761496951648,0.975114698113414,0.9833566712687636,0.9484852290732282,0.907584852524159,0.8812704534176776,0.8799299318620837,0.8974982248745611,0.9286396694219803,0.9138834880930677,0.8533775239422958,0.7861200890833082,0.7218716513633925,0.6589824694572031,0.600410728363908,0.5345867273144822,0.4668599777795544,0.411743110288791,0.43108754721373627,0.4977799177761976,0.562333568553329,0.6294024341168425,0.6939134769362059,0.7585533328071563,0.8238016153042378,0.8775143515990642,0.8745808313203856,0.8553451472185807,0.8354754872489465,0.8435677513478992,0.8448920144769256,0.8403091328081949,0.862532158076375,0.9135537426134723,0.9684357162860866,1.0,0.9750937889376787,0.930816603888664,0.8909746211010783,0.8656724703925283,0.8644357975435086,0.8775787632178251,0.9016392121499677,0.8762518121501088,0.8142719114918013,0.7460265182641364,0.6770790303862386,0.6082089701065261,0.5422182354804421,0.47644680358923547,0.40763714876188034,0.34237831971820193,0.3218956455246203,0.3795609979565144,0.44717269236450513,0.5116442274012534,0.5799712810294122,0.6460260164002676,0.7114533562539309,0.7759490774012394,0.8375573739812987,0.875206725786704,0.856290355680708,0.8399320080837955,0.8281937657876925,0.8384886585374141,0.8308608278796974,0.8286142842835658,0.8588562655637308,0.9096899439689972,0.9567176919228788,0.9630588095792565,0.92724444443868,0.8880619814861868,0.8623081964508701,0.8583001301656026,0.8773684170777065,0.8840932891415563,0.8316564390594852,0.7659818240583074,0.7008822769968981,0.6338769660328611,0.5691467138214723,0.500756817222626,0.4356462531023842,0.37119145446285134,0.35736453478586355,0.41869125015871494,0.48747074827498854,0.5529119710747834,0.6192267623196877,0.6860527014810684,0.7501000467059538,0.8120343392071667,0.851820499201972,0.8354665243874138,0.8155582024082366,0.7971084996528861,0.8088888117312714,0.8123196466050864,0.8114315532671235,0.8354179836366247,0.8868857412185502,0.940883627996518,0.9775369636634075,0.9607625632439913,0.9206598209263179,0.8839423897927259,0.8719186877198757,0.8815431234130426,HB
0.8294705178453401,0.8475074281988613,0.8102233784454849,0.7356276404217206,0.6620014307283164,0.5869278534508328,0.5090755922732964,0.4330935040763113,0.3601687022151897,0.28267989846564545,0.2047656694714689,0.12801173649907271,0.056118250642582856,0.008401504702284346,0.05054764645616755,0.1256825323330713,0.19831918908730628,0.27554863039930255,0.35175839445057866,0.4245430482558551,0.5019388873002308,0.5796654778192973,0.6508865447380179,0.7172334634659361,0.7845069752303189,0.8555150932788749,0.9188080222947093,0.9106665017867859,0.8846318171679077,0.8786249486553408,0.8816593076423185,0.8739134448951775,0.8414830735414376,0.8146324198510262,0.8216747452445219,0.820496932315308,0.8072546560886265,0.8065973373587669,0.7990309407441931,0.7796959415051652,0.7808448027164971,0.8129466728207333,0.8125177579677798,0.7550088439173701,0.6776336143933164,0.5997141256359192,0.521912960351555,0.4477199235927062,0.37324466984160887,0.29541612701654707,0.21749926998490132,0.14049980611093926,0.06814538258634772,0.009852091850912181,0.03940729198707832,0.11414011818525815,0.1875931167976752,0.2628612019504276,0.3397258359959934,0.4122700437598612,0.489204453496345,0.566484772287208,0.6391557546365136,0.7155885307740419,0.7929367685290125,0.8644834564723305,0.9027063878445343,0.8878804539959182,0.8803898110235788,0.8874487140319522,0.9020819907275541,0.894068948711038,0.8684746985407761,0.8360947705838635,0.8375777560682507,0.839050625061672,0.8265193299909226,0.8227276209762135,0.8139435586557517,0.7940919111677123,0.8046745585634707,0.8342044505140682,0.8174336852232709,0.7511616552084848,0.6756029184648729,0.599863452056133,0.5267889919175098,0.44922919405047756,0.37132337270157023,0.29517879870045005,0.22235829897556025,0.14493078736126574,0.06741572810868579,0.016244176158244417,0.06023662215389208,0.13212505960134469,0.20894263016165426,0.2830002962761716,0.3576098229370126,0.4347781908040075,0.5074179895743194,0.5839177859032254,0.6616700170539491,0.735549959350287,0.8103204316725696,0.8836600309067213,0.9100170452412724,0.8866363228329077,0.8703891905285293,0.8724655451010614,0.8760262136711803,0.8700452653195663,0.841809347224133,0.8177332950733933,0.8281626567558489,0.8355356315183744,0.8294667426823141,0.8288727986297146,0.815307053516223,0.7940876411459046,0.8074983871943784,0.831796007929752,0.7981153921704061,0.7276676095790013,0.6514267807717917,0.5736370405191549,0.49943969253622333,0.42496886967588443,0.3471407083475483,0.26922096971125553,0.19147514471096583,0.11769788046736879,0.043742713705899106,0.0,0.048193382745296276,0.12055672577496052,0.19635973171897614,0.27425738669591826,0.352177125332211,0.43009676670578767,0.5077403229886651,0.5810582349036232,0.6565078480238062,0.7342477775752785,0.8082109641786559,0.8814313748604945,0.9309479770593057,0.9127154097908734,0.8952421612096573,0.8841619534454064,0.8878556040735055,0.8872390539207009,0.9090204188447393,0.9154201524661152,0.9151712011765576,0.9284018238948157,0.9655976744189299,1.0,0.9596995546196845,0.8843625818080116,0.8112904228412758,0.735557092287086,0.6599577792096145,0.5897100472993012,0.575764542019578,0.6408609754844532,0.7177751122357832,0.7905182442447805,0.8573717887145604,0.8729205907907249,0.851756463480162,0.8323759397105688,0.8410741854866599,0.8528553361523941,0.8527372660985029,0.8613735660803115,0.8556446215202245,0.8538017251718031,0.8844148549311759,0.9034101577920102,0.9083542099663633,0.901999159550215,0.9062363544427503,0.9324219529027022,0.9756262701086471,0.9676468810747749,0.9032778451931991,0.8292712601560441,0.7566975284172359,0.6795146834936769,0.6021959156999109,0.5294929955255844,0.45383465476275553,0.4136935244037637,0.47179042749859534,0.549358920177777,0.6223322704333475,0.6869041963829137,0.7503731579035031,0.823292168364524,0.8707002843478335,0.8663536505707505,0.8374649583577856,0.8300596121467951,0.8468027702323406,0.8489034781306504,0.8498640120789143,0.8634123087688066,0.8687988410344689,0.8621954225928286,0.8904417823582995,0.9205228667109171,0.9277256958836548,0.9219094824522034,0.9094673786573015,0.917418296669497,0.9525078028772478,0.9501560922573542,0.8876755592581784,0.8143615214096951,0.7374029555528958,0.6648165685385985,0.5885159449900988,0.5189171073185938,0.46532021245916777,0.4987936914116011,0.5736612742033899,0.6513790442582645,0.7251457217942998,0.7989590791713801,0.8564566978302157,0.8534805623446402,0.8260461584138139,0.80958098384238,0.8240739408459081,0.8332904418165594,0.8352905860600601,0.8485286143938195,0.8586150734407443,0.8457141672646817,0.8672323919996936,0.8986037132296041,0.9109677550936706,0.9044423901808121,0.9090864246435881,0.9368391463073458,0.9853137892855981,0.9872999870022552,0.9236558405102913,0.85210289313097,0.8019862515778506,0.8449862915366211,0.8942536015961273,0.8821338662390172,0.8591728878900702,HB
0.8128349129977818,0.7725369221418527,0.7236171183956775,0.6939933757748314,0.6718586466875253,0.6618930990141395,0.7060938252587184,0.7649440778515814,0.8038043976926358,0.8137962728135227,0.8024337006705263,0.7926130635051133,0.7913777941160037,0.823443772165073,0.841483021679092,0.7875012841307026,0.7074177026980447,0.6257403617185218,0.5414846589116065,0.4614022478294729,0.3790903892819367,0.2945330733421727,0.2123219796639927,0.13216110727673225,0.048877298704904426,0.0,0.05053346079383575,0.12990480160749412,0.21418774870077917,0.29880988451546553,0.3833896116374784,0.46541791696858836,0.5457189667844659,0.6285806946308203,0.7081033267358924,0.7888728939453155,0.8407458079480755,0.8247454962401285,0.789766480215527,0.7433368877489283,0.7167962599017207,0.7471129270499696,0.8003046793617693,0.8357455210804964,0.8435550222718183,0.8336388488295526,0.8213071501544286,0.8430557859184818,0.8770151165498622,0.8791820559987314,0.8084819175851149,0.7287658684653618,0.6460723198672947,0.5614691666865828,0.4768467201293608,0.392224661196937,0.3079694012734093,0.2280587239734323,0.14582352575728608,0.0784558339699814,0.09988177254712444,0.17616540861185304,0.26011116852190264,0.3417295143254815,0.42238976731765954,0.5047075643130197,0.5748061562496534,0.6462577216500237,0.7190535895005229,0.7990618525952781,0.8570985837806763,0.8435776053345524,0.8078854414341557,0.764049040920925,0.7307491666055731,0.7555060909457619,0.8019101173104323,0.8361815011199997,0.8498283833683405,0.8508336512177118,0.8350135948061529,0.8387234112032312,0.8721836412925376,0.8907950472239269,0.8399892326734092,0.7670980914541342,0.6871080642787682,0.6077029314641607,0.5242665525548836,0.4396813092152033,0.357375882626049,0.27729123411814793,0.19321169437844588,0.11363359252672661,0.06686671401040084,0.1213524816872969,0.20163864383801788,0.28307964098723515,0.3672512422039387,0.44716133707021444,0.5296225428776742,0.6109704495031837,0.6914880426573041,0.7709856722981535,0.8454372559695854,0.8706406917150079,0.8429655781564446,0.8018190934621253,0.764044750245409,0.7732677413574937,0.8221961348043508,0.8601761348396398,0.8725384859068165,0.8708985973807232,0.8506265263263754,0.8488184492775116,0.8793929412106637,0.8977120004073335,0.8443080265397881,0.7609520845748184,0.6792685464434717,0.5986573367262848,0.5142128523205453,0.42996053293971015,0.35005777411566386,0.26751269894728325,0.18402928926919537,0.10646933192636682,0.07395875094583482,0.13845549483496533,0.22281030464039886,0.30743146890441875,0.3914446797160801,0.47100426886390667,0.5539631540233779,0.6346622974225541,0.7156100816283121,0.7947776044402782,0.8664441890417242,0.8699401678919262,0.8202343085799776,0.776633789068358,0.7267917826959011,0.6881771571501781,0.7095930793383617,0.7587682886291115,0.8056438760815597,0.8510284382819114,0.904705789408606,0.9258908979143309,0.8718065173142026,0.7906868020615566,0.7066902226222606,0.6313361510901555,0.5584815973869794,0.50828588966852,0.5623383741554598,0.6464863871724059,0.7288861466725344,0.8088623950738695,0.8906546184491263,0.9672204115479951,1.0,0.9449323312834771,0.8977651355635671,0.8713047355228102,0.8824482570311526,0.890057452476036,0.8916844955545561,0.8814153144890621,0.8412565650985978,0.7958000931544663,0.8018762202608162,0.8435891949134954,0.8797962484432708,0.9049326791227025,0.88443474418874,0.8123629919087377,0.7330935335465997,0.6514762469434684,0.5713253210614777,0.5051335643042221,0.542812684665066,0.6262921740843671,0.7090441697794935,0.7877655116642829,0.8604027110742117,0.9352772398721371,0.9882655333658471,0.9517631848016056,0.8980033886804896,0.8654378008531013,0.8583803021223441,0.8715936755589256,0.8682719665547646,0.8580500359844464,0.8294315921000309,0.7851754485149719,0.7619529341668639,0.7994150478556746,0.8397874257734533,0.8739819353778052,0.8974799129452348,0.8531894669515011,0.7755681166086227,0.6962801891034186,0.6137047765573155,0.5340485985540206,0.4545442910579346,0.4419969781260892,0.5174021223573889,0.596811345594929,0.6803333772767984,0.7644379782325929,0.8440700586990396,0.9244364602367537,0.98491538441326,0.9562022716953164,0.9006715802360935,0.8667932901671803,0.8477578073642597,0.8585401532008438,0.8611471662096489,0.851541943519767,0.8139353428522172,0.7644862058936474,0.751704934053108,0.793147632762707,0.8317493688691949,0.8640618138781974,0.8758046248113286,0.817428421327593,0.7357561394447779,0.6560802273831764,0.5731595001858392,0.4986416379663755,0.4952368449742174,0.5688844461233,0.6529321579965309,0.7361948992352297,0.8156727171088803,0.8973438850230545,0.956751751987749,0.9256894934899896,0.8627855827992289,0.8292807450389196,0.8127677188567602,0.8195958633622441,0.8323953585668383,0.8325146131879954,0.8017128459213642,0.7638740918063133,0.7657719175005703,0.8074893685650736,0.843255691737748,HB
0.1627254978639352,0.09013065332509762,0.09579954727869289,0.17384643513873077,0.2488260709183996,0.3444904930777668,0.4416306473656252,0.473214404072989,0.41139199032334195,0.3755639949842159,0.33676228318835577,0.2768680795852042,0.29006621913149877,0.3275350374463205,0.32145538537621166,0.2927742288656793,0.21195060417721312,0.13246389076588105,0.15166876065806334,0.23950890028205107,0.3396579604692723,0.4379454161380537,0.5367611577318047,0.5655887677301897,0.484598840312895,0.41434406442403693,0.3695179250592805,0.30226632066019343,0.23886018855751157,0.262719383266361,0.3291456255547204,0.3380136696176478,0.2685349419817541,0.17359978103378781,0.09780914785845085,0.13185043247880812,0.22804583083844643,0.32473400177535305,0.42253988263579545,0.5214879527075696,0.6214651218171928,0.7143017418512173,0.704155210463259,0.6113841425962686,0.5153163946906857,0.4332996050937542,0.3771152312230305,0.3114327069310987,0.2316038805885683,0.16364545545971299,0.18692387756501383,0.265038034706255,0.30855993980177354,0.27035968192563775,0.18321078735225882,0.1143179148477037,0.15882064198120316,0.25164083462979014,0.3467280544627951,0.4449731008637591,0.5040238327682752,0.4432622307920041,0.38224733362029994,0.35004333799916953,0.28463591183965,0.22625756846304335,0.25563867381090133,0.3175540527002574,0.3301791956746998,0.28421276609771695,0.2000296009829563,0.14840239755290952,0.2067642309841864,0.29944807177121746,0.39977154314577346,0.49955041486904983,0.555704003975607,0.4939544070371612,0.4181595728127244,0.373089072393891,0.3140060220540192,0.2497357008553034,0.2720178805754492,0.32222983445057796,0.29180218762613797,0.21067918576237,0.120265076660665,0.027525950428008428,0.0,0.08321528671013667,0.18132125326950221,0.28082789362744276,0.3797102665320239,0.47990659067710484,0.5788005507199147,0.666731295003378,0.6432183923827063,0.5497352933593705,0.4594594418779586,0.39456989326433967,0.33643253066865686,0.25503731397707785,0.17036008046202855,0.11130952035080821,0.15431105343493934,0.23859339217824027,0.30530854958689324,0.30439362785491,0.23639482293962988,0.16015306885674674,0.1816134814071345,0.2696725215746645,0.36699444907352896,0.46885510572066635,0.5604214586916133,0.5466015055103938,0.4618632890723774,0.40187770711998183,0.38196317888637477,0.41386280059053393,0.471257032914853,0.5597944749240612,0.6566003417572809,0.7503844402816103,0.7846304595628081,0.7052277012456486,0.6049354563365407,0.5061755254441894,0.40439415656980093,0.31107042890404857,0.23119379620044977,0.24167485657663668,0.31261152357441535,0.34011442945480175,0.29771273919665275,0.22164076000776967,0.16293771345106323,0.2143009122690357,0.29979032547787976,0.3744539646776971,0.42720117861100093,0.5044408258016776,0.5994621507280081,0.6978220698228393,0.796979415098683,0.8949854700163907,0.9875777062503616,1.0,0.9135709189255344,0.8126370148663248,0.7100865447867838,0.6075183927573923,0.5049505356751455,0.4026669226869325,0.3038671981653035,0.20474058488369185,0.1394775460166885,0.19791955459370447,0.2930463041034741,0.35517370746341603,0.33241376846088544,0.2856710909219087,0.3237771775996039,0.3862983191345687,0.4288443144806525,0.5015814983415948,0.5876310043221481,0.6834892782950076,0.7654221663483721,0.7422730356263564,0.6457410125649495,0.5473459854189308,0.4460996132270322,0.34358012085813017,0.24645265560981133,0.22070415602341575,0.293821577565773,0.3415230622397536,0.35569420498374116,0.316938844175652,0.2697129016578609,0.309787286158805,0.37178618777636385,0.4152189395623439,0.49259640960392914,0.5871408111908208,0.6847879844223986,0.7815970942521561,0.8367974160249588,0.771830675735426,0.6713682315537531,0.5730653780435347,0.4715425992578065,0.37279176338976805,0.27728870316326815,0.22695920909859946,0.28623514145059703,0.33224222952896054,0.3160669542417732,0.2461982886783719,0.20039862020201293,0.25940031880260384,0.3376075314576764,0.3986714852071803,0.4587963603218962,0.5476221134822238,0.6442410952570788,0.7415561820531872,0.8389016334230429,0.9224989943828766,0.905687980610837,0.812312265278255,0.7124545852377909,0.6099660953299161,0.5074541068566619,0.4073112826928892,0.31014865626520505,0.22391061254309697,0.23522662937465333,0.3212251756439567,0.3682588247920938,0.3426647543757284,0.2799038648504283,0.29200974078838837,0.36113767071481473,0.4112121207373155,0.4700441311765923,0.5581812064637856,0.6538070120599343,0.741954106747256,0.7391048897584876,0.6478575177827984,0.5461445140289228,0.4476766974776053,0.3465915569788187,0.24774475775286953,0.19316482788303868,0.25210008687055796,0.32547471129725003,0.34466203519187166,0.3404663191146917,0.30858199199805825,0.34458815181629143,0.3943868583981974,0.42223413034613,0.49521680212225017,0.5894749895633303,0.6851281339220837,0.756632278747566,0.7122618165938174,0.6138877521904643,0.5128341944290725,0.4144050381356955,0.3225040937789342,0.2964778841442758,HB
0.4020320110146487,0.41315360090638853,0.48753781411881913,0.5515647894147313,0.6141952804494841,0.6395562032428295,0.6110072705368736,0.6394486260372951,0.6145852832302787,0.5132965267949334,0.40294196709351393,0.2945867293738448,0.1834257987375375,0.0874551228635938,0.10081381607693574,0.20373167469963627,0.31350909643353997,0.425424492115998,0.533509467858043,0.6459233609520172,0.7572361087844057,0.8354637880293938,0.7845491163884648,0.6936184161562566,0.622450879771641,0.5507685434494727,0.4672638259878621,0.3922820231219831,0.40446820998979904,0.4913717731406533,0.5803088411020272,0.639991352616341,0.6192957284024532,0.6209201601176138,0.6322269172705504,0.5465703717233272,0.4519829313001438,0.35442649443532825,0.24372250776317783,0.13342737048916808,0.0336884590691654,0.03691806496645389,0.1399310335782592,0.24823660351815435,0.3603650627035667,0.46856761374584366,0.5802454703409683,0.6915431103590695,0.7982024257724003,0.8475143403202605,0.7693678318307642,0.6819295325110464,0.6138127933627853,0.5360041560146735,0.44879111704501073,0.3788978811419026,0.4026725695333394,0.49229192285436163,0.5808256239255638,0.6304779273937766,0.6125673412165236,0.630799458458225,0.6122522230246625,0.512126073994158,0.40097464377457837,0.29219934998402775,0.18145593922049497,0.07157933920529003,0.0,0.062241388262180064,0.16929957959809627,0.2807109114821863,0.39325136780360337,0.5013936163434256,0.6132327159840116,0.7258031795880318,0.8193113378195203,0.7963899711866247,0.7058766197942103,0.6343351965998751,0.5644769085185934,0.4803514971830334,0.4061691266016447,0.4168970682765072,0.500752480120459,0.5916766992324152,0.6486418086963281,0.6337920839019049,0.6435601177967849,0.6322270176591613,0.5346101567366699,0.42629506192175914,0.3164044380876051,0.20430030960272227,0.09856530099857852,0.05391352609012556,0.14129145792323605,0.24911416796193397,0.3607057320361795,0.46889728816070675,0.5805890740926121,0.6918725050365464,0.7997009196038498,0.8719061055704378,0.8083503282570175,0.7152181800019934,0.6394840990264106,0.5695856949900135,0.4870993430942414,0.4136758646393901,0.4215877590930617,0.5039555274940755,0.5914382402131368,0.6364478073209745,0.613338749603809,0.6272070352362289,0.6033158879024749,0.5025822980139172,0.39378264644485605,0.28582575845834857,0.17476642144504684,0.08539221939287067,0.12008724121369774,0.22957045192656467,0.3379168341369858,0.4493096086032975,0.5602282923573514,0.6689080265317027,0.7791959806638094,0.8267954069081866,0.7499296723814113,0.6654341623655828,0.5987125352879141,0.5238941102820247,0.4432791338087747,0.41303027361851563,0.4778345713423975,0.5670366101057105,0.6309515470064404,0.6215651208676081,0.6280971147602417,0.6622043766632473,0.6416645363793245,0.6580164976648959,0.6402734083061272,0.5646206288830735,0.4796143441191101,0.4514913505092102,0.5208339683087264,0.5968234967636661,0.6634930567418413,0.746028191737421,0.8462357160440583,0.9479344834094909,0.9975607975302276,0.9201328863213443,0.8076810331702113,0.6949714288803521,0.5928527334196159,0.523816546667025,0.5822160391034725,0.6640313438213721,0.6538023202902734,0.6448423000891554,0.6656583080361747,0.6176563040135001,0.5336042639805918,0.4526323648913828,0.4590813813443029,0.538937951442962,0.6154358287316355,0.6839691177384339,0.7700373349218612,0.8702959412955136,0.9704895877022097,1.0,0.911874760400283,0.7994154820682318,0.6861347882514284,0.5735748412375044,0.5001162564773116,0.5658028127191281,0.6633763668470782,0.6861674278680105,0.6590572171593667,0.6789241496347354,0.6509677915297483,0.5705473193021036,0.4813807332530904,0.43346068787740855,0.496141587319366,0.5771027023881634,0.646856234342922,0.7185160004358118,0.815721010247199,0.9172757645858864,0.9842503421397975,0.9236916277427809,0.8173226915046778,0.7073982326676689,0.6247284205266679,0.6641064212066119,0.6639271344737954,0.6396771308142932,0.6644500844307935,0.6307249697799442,0.5479284331369458,0.4578287945685553,0.41038539894078396,0.4762921941932463,0.5612518076703445,0.6353170118036868,0.7049522276701015,0.7971024011652219,0.9005945668698683,0.9761800826438745,0.9284767417986923,0.8219038233278528,0.7129890759448039,0.6001759476330293,0.5124947335751819,0.561350986520087,0.6583045627556712,0.6777028048688172,0.6405320534297334,0.6658897004843249,0.6569488416865921,0.5852860485829809,0.4931021531481181,0.4253952706674915,0.46888498057014183,0.5536242165250946,0.6253511824660065,0.6949168950358391,0.7820654576143693,0.88736090398817,0.979598043768942,0.9650561007828382,0.864387085772848,0.7558688093876542,0.6436574997499303,0.5402422271363256,0.5232315084992236,0.6211840381891891,0.6792156247599364,0.6475889902892489,0.656305859989327,0.6696543116879867,0.611350368578053,0.5344065368245152,0.48633962055504276,0.44075102389505183,0.47592677888012447,0.5280290887793451,0.551147555525564,HB
0.4761399050223891,0.4405227556249387,0.3877458773590028,0.33589586032769914,0.30567625367406404,0.28879056595656427,0.3094046181016161,0.3650637899219519,0.3945785449944482,0.39476424256736986,0.40830993227850854,0.39592376731313117,0.345324894998595,0.27930522589481765,0.27082688928847765,0.3349046165583899,0.4114827665320425,0.49115199012982413,0.5656636334488623,0.5965802603726786,0.5404587377715091,0.4775997167821886,0.44497602306006867,0.4189927294382725,0.3647112991566962,0.311458217764527,0.3232470921418965,0.37710102112024757,0.40753440832910726,0.3949555982848876,0.4023877847347572,0.41909748945154335,0.39440061304127816,0.3234061204518254,0.2478974245754756,0.1880214587940784,0.20639362167875464,0.278493782770346,0.3571325223659495,0.43889867847303865,0.5207728503479776,0.593969268842286,0.5823123272943607,0.5164259355453076,0.48182593188081124,0.4521282927017848,0.3975919267328981,0.3385431136582333,0.32854626322787905,0.3784339812591079,0.42042400856538986,0.41350766642967574,0.35231294025396,0.2731812205869435,0.19172949600208378,0.1151131241573976,0.06119570274545749,0.09748729801961031,0.17298805063874534,0.2502609004417393,0.32776238750500875,0.403699212965986,0.4753873740777086,0.5559269779979943,0.6370271994453047,0.6798469257008031,0.6226192276481133,0.5475158816032508,0.48618916765573994,0.4458300285864445,0.39386648065420615,0.33239171242604704,0.2709122719286394,0.24647771380885775,0.2962527987249618,0.35793510233114845,0.39652899949321785,0.41115773243114573,0.41132414859004207,0.3838003954993312,0.3176698039393451,0.2736496271234138,0.31312185528759573,0.38591046822110886,0.46631508202588,0.5440260951319984,0.605502139273999,0.5721932920795889,0.5095554197266294,0.46729590151471745,0.4393643928385197,0.3870832380082333,0.33564504606595424,0.3527050887345434,0.4016364354847739,0.4209143622086823,0.37313705841485356,0.29746369082472957,0.2168548749432746,0.13524468491635955,0.057893777657898826,0.0,0.02907588786553672,0.10557350891567197,0.1833472843059185,0.2644553412951647,0.34410540479094176,0.4227998242218457,0.5035651366300826,0.5582192807225259,0.5189778229327804,0.46306554567911395,0.4252284926981408,0.36971225698209176,0.30575277896781217,0.24696214491963075,0.24327239574634074,0.30310121567580206,0.3671468723649547,0.41065804476569967,0.3816071774672569,0.3191025240609714,0.2732412324242188,0.31051377372075994,0.37143501743686,0.42955554015642416,0.47021314811476667,0.5238959494122464,0.5976021501312185,0.6759694831532397,0.7537618968359205,0.8326751046684064,0.910575363271416,0.9847657169922626,1.0,0.9320039358177035,0.8528381605334667,0.7710144399970946,0.6891358902133446,0.6090690683422668,0.5307152459904991,0.4492090308937007,0.37044031304349945,0.29099991725793006,0.22541318110393505,0.2540132122219274,0.33105225996994714,0.404493379053925,0.44301808077284544,0.4269105108004727,0.38013971613105635,0.37124568331400487,0.4249841043886736,0.4695302018788292,0.4917936990233521,0.5457377258165848,0.6198799606979346,0.6963031898883008,0.7676698697438937,0.7717205461012269,0.701371643709118,0.620594248799226,0.5427198401509346,0.46182114841210564,0.38048064372623236,0.3279526377070121,0.37015846222751736,0.4223073420656249,0.43146576259183034,0.4292497807973189,0.40803112351848225,0.35915755718094966,0.3004098503790542,0.30161514909325626,0.3595739286281463,0.41868567958827774,0.46780063418520323,0.5113035534299522,0.5796907550523704,0.6557253344114622,0.7334318142540301,0.8124082134279946,0.8903006253820944,0.9635952840709303,0.9680374612233769,0.8951322860338795,0.8173129726434554,0.7360967868790154,0.6541960291259796,0.572985145662896,0.49512933159209604,0.41415586746704425,0.3336724560664853,0.25615130547193876,0.19747352083657543,0.23596784711354002,0.31265234057955815,0.3886572532862095,0.437334638117006,0.44322196422278204,0.4098318869626165,0.3618450149911362,0.3728394322657429,0.43226170417081144,0.47878213625710775,0.5076750840786313,0.563421121431881,0.6380942802923779,0.713981518275425,0.7835394783311114,0.7838723529808214,0.7105966400204242,0.6327992916755065,0.5517373300731339,0.47272819921105647,0.40046507266812814,0.32566788789424306,0.2688069228160004,0.3056929057268849,0.37815419035328124,0.4320913851697499,0.43678140019808054,0.4203040931953017,0.4248580359834361,0.42388152982754046,0.38196366234716694,0.34639963625193126,0.38522266327315924,0.4391102453979002,0.46783886805712516,0.5063918551638755,0.5759095130976928,0.6517682346033318,0.7286082886980789,0.8006725499927805,0.8057888161395066,0.7320246945813575,0.6513083014447656,0.573381379424599,0.49243442404529825,0.4148419973634103,0.34987237265783755,0.3680363066569722,0.412835445587707,0.42657503092836413,0.4251660767495573,0.41668719291273804,0.40176452228191584,0.35164898351396123,0.33498298979887564,0.3620738723981345,0.4040503948564218,0.455262102887414,0.4935318763774047,0.535178492409097,HB
0.7504318371491526,0.7889403816322944,0.7756987718161447,0.7086713010732695,0.6414643858340087,0.5749595806607906,0.5058564845894067,0.43287208400347676,0.35995358480832484,0.2907573795383275,0.21898669574749968,0.15241850498836568,0.135318219216785,0.19758447288418174,0.2684627493016324,0.3385847922303981,0.41188703976613855,0.4853336435675023,0.5587615390038996,0.6304880542292923,0.6998300828652231,0.7595474118276544,0.78253688411492,0.8120857403069655,0.8008608190317926,0.8310058989763667,0.8627015642350724,0.917085690044877,0.962655516551023,0.9617357868726607,0.9382223543047222,0.9031694830866916,0.8705527223394542,0.8663141149108226,0.9028307239680432,0.9378659393390995,0.9494491415713134,0.9412433932300294,0.9256606085934721,0.9119828244635557,0.9227266985368746,0.9424012873148212,0.9021539853686417,0.8325562579747143,0.763442714845737,0.6910659865454035,0.6183791321784733,0.5492764058559898,0.47675127432352027,0.4033740744220342,0.332578270147055,0.2623290440873934,0.19035169090463255,0.12744335381840344,0.12925503289336177,0.19536817591206068,0.26477394752954175,0.33787365936118063,0.4113198845244292,0.48469146107645344,0.5553764340331926,0.625740970454389,0.6990802752867228,0.7725264150673149,0.8455942716894526,0.9119147897208539,0.9412391547780824,0.9320424603367149,0.9061247987980129,0.8736469895172796,0.8506305295086003,0.8684762683741657,0.9108589162682236,0.9368767964153552,0.9444097366021528,0.9387692247740026,0.9231370856587969,0.9174796582241352,0.9424895393099796,0.9157723126483049,0.84957582198615,0.7779437746520976,0.708784955313052,0.6359133966686982,0.5630526875306892,0.4938891766406296,0.4215926185046953,0.3481529694790475,0.27470636567768464,0.20125976187632044,0.12790484218926357,0.05751101599318566,0.0,0.019936386312059504,0.08842901200276997,0.15822583474339957,0.23146082900047804,0.3049073822987074,0.37835393915993043,0.45158066874397673,0.5213499164061588,0.5927005511173223,0.6661137615224648,0.7391463371259946,0.8083666696232689,0.876866955022619,0.9291921713463455,0.9328522294651295,0.9191227854440468,0.8924139819211915,0.8598815869249687,0.854166993863136,0.889035091675032,0.9280615381557685,0.9491037861797494,0.9440864479856802,0.922598976537388,0.904978506637911,0.9214941590253286,0.9164692666935134,0.854582785959556,0.7852750528954123,0.7130229940964394,0.6439263429280381,0.5713674414531836,0.5002282521424586,0.4302837488048832,0.3570150704588456,0.2838957355886697,0.21442672897224724,0.14298779783639465,0.08168952200920997,0.09045889101418304,0.15892581227763175,0.23039876360506278,0.3000532367287233,0.37324971030941406,0.44669619272605066,0.5201421943837023,0.5929717786551864,0.6586106819504455,0.7284749105060555,0.8016484639743621,0.8708181936326729,0.9167749964362656,0.9063581627790677,0.8793488812220374,0.8513670906363475,0.8178438840933586,0.8013765469386693,0.8296504782407027,0.8767430749471316,0.911801963635249,0.9256424480885878,0.930852432690647,0.9467014716244083,0.9484446703351926,0.9382915122566781,0.9092385331051988,0.8659224547705986,0.8297427212709811,0.843260051340342,0.8757836155157006,0.9052444154812543,0.931332815136917,0.9467322201069065,0.9138304043415958,0.8472574346318384,0.7746558623320591,0.7045478692817758,0.633590822477554,0.5615494410699513,0.5325705913193869,0.5901644119967931,0.6628455211024575,0.7320154492610819,0.8041539320592337,0.8710782981466613,0.9299156005015611,0.9612809637395227,0.9401625588931858,0.9332789644631853,0.9582557879969705,0.973736488435572,0.9654919475260887,0.9416978185683321,0.9038431332989493,0.8781705710373755,0.9014208833590157,0.9336150612846251,0.9523164021908027,0.9614731076761217,0.9492216257540332,0.8931448665191675,0.8249683764575207,0.7556087168823293,0.6826548596504555,0.6126403069060559,0.541577262768607,0.46975212297951374,0.4456222562907287,0.5072439921015641,0.5781332860387013,0.6482512286584836,0.7211920836975074,0.7905865005760776,0.8624361002891543,0.9349993377886504,0.9809184059082122,0.9659004563236661,0.9475046032124895,0.9567475643902091,0.9647041693501589,0.9617806579403457,0.9451118606319363,0.9100204259676278,0.8783874889183048,0.8940315354389216,0.9263568202907925,0.9519791111951382,0.9651171322933288,0.9499884542180851,0.892127818187007,0.8235388684780643,0.760334961998711,0.7004063214940158,0.6401050818475514,0.610203660969858,0.660816507787832,0.7318491017768307,0.8034227928411637,0.8726088924294275,0.9400268556380676,0.9755941479527831,0.955931809865367,0.9398299762158401,0.9445872982679914,0.960566675978472,0.9715064953805589,0.966953996057952,0.9427300646931512,0.9031428062998907,0.8919776978204204,0.9225451351559709,0.9574678206216519,0.9821430420951561,0.9904534762058917,0.9655582095471743,0.900455245097912,0.8279838363523513,0.7874872871451254,0.8312118710483729,0.9013291544504435,0.967408193363465,1.0,HB
0.7113360211550583,0.7221857841390376,0.6691268050485739,0.5811324195396039,0.49761530915501107,0.49545038286333165,0.46503226998024294,0.4208712736671427,0.3346337921538294,0.24369497948623886,0.1496600311056897,0.07620144689082908,0.10075914890040227,0.17988092790401344,0.264744202344229,0.3618124568316905,0.4450380009018755,0.5127686438213459,0.5937536862436117,0.6868483625827564,0.7826346137944247,0.8172719742445635,0.7607248988993782,0.7219294846654791,0.7067393250570966,0.6811288855366116,0.6630782564260347,0.6640689630752548,0.6716809182312267,0.6561784353275875,0.6344869480477553,0.648349300935108,0.6970073863111104,0.7176753232860997,0.6708631258227442,0.5800493068324963,0.48516671656255617,0.39331937900049074,0.29585816211653304,0.2027608261384326,0.10931058853445907,0.020088454606909334,0.0,0.07888866975568798,0.1715448337744443,0.2652805275011234,0.36318531675667565,0.4587255342408958,0.5501804391519574,0.6476111027322149,0.7433705394377503,0.8160123468969349,0.7860362201909079,0.7368984396673512,0.7204949784537422,0.6983677662591479,0.6771626016318109,0.6708829858618774,0.6743204488084309,0.6535787739498742,0.6291923304425842,0.6490129930284865,0.6975396680172599,0.7101397262033697,0.6566836516444763,0.5689896961930476,0.47680748340498535,0.3843926212619331,0.28758711758888955,0.19653608686853685,0.10064284131220813,0.03187710108634656,0.07846688352959985,0.17121329525562867,0.26334836319780175,0.36101623445441255,0.45602253042360896,0.5478539467141461,0.6454444311398178,0.7407936421562507,0.826822520113099,0.8338312814556381,0.7664263630101147,0.7309340135585474,0.7173519927932539,0.6863771648877197,0.6729828135714808,0.6771305133332879,0.6988328608891312,0.6834745936201168,0.6595881974544573,0.681351560426843,0.7299984544075253,0.745957570066708,0.6916739001497856,0.6039705298574085,0.5122251405345546,0.4204752580708606,0.32574714707394925,0.23116307021693028,0.15588686090203074,0.1020873584908385,0.14047970625960815,0.23204489368836834,0.32719411931653797,0.4188233621522863,0.5163451929517138,0.6119648076229134,0.7033666330474566,0.7996897764082116,0.8510735411617674,0.7973347051090516,0.7528139906953637,0.7377124394342649,0.707882815591643,0.6816832358062275,0.681415129118887,0.6812541654196633,0.6551092915004193,0.6249427614376095,0.6507973627849641,0.6976683901133265,0.7087703611668916,0.6503413699122151,0.5549305064744245,0.46325246449567925,0.3683915869870036,0.27634887361281213,0.1822568870973198,0.09379401692901268,0.06342553764454006,0.13920981749888717,0.2289339050912793,0.31291302520014064,0.4062828520261239,0.4984983173555715,0.5929910140087402,0.6896822975461783,0.7737604181497297,0.7785019054016773,0.7350396193848854,0.7130890430459429,0.686579364226219,0.6691129732307641,0.6985459496276605,0.7310506951184148,0.7513275407491038,0.7899346879715397,0.8650915886361648,0.9436077634155449,0.9471361261411375,0.8666534581605803,0.7746239736664999,0.6818130644299671,0.585211852636409,0.5083456117368876,0.5355971620517148,0.6246062857538619,0.7062730528034031,0.74551328239432,0.7370159923593484,0.7009130707273568,0.668836283075759,0.6915762082626631,0.7130424013377221,0.7109961880413536,0.7098554564262942,0.737311650841546,0.7651088894040301,0.7842445183109341,0.8393505297859447,0.9215231987393682,1.0,0.9944168422032276,0.9135125820515477,0.8204992258014423,0.7226157493121703,0.624594926458272,0.526686599744911,0.4478456901045198,0.4837166662654433,0.5764461872526068,0.6664263780703787,0.7458277296098734,0.7763091070738801,0.7623617702033982,0.7151033746040907,0.6966813565505541,0.7233925074972936,0.7308615066639301,0.7095910558912939,0.7004148233366128,0.718351854977352,0.7465186681605578,0.7634621605715683,0.809970801816488,0.8917907080627321,0.9674419533697112,0.9443024474362554,0.8596969350474426,0.7728041296156825,0.6904235435735673,0.5973939152809664,0.5057059711100029,0.40975714940263974,0.3727010663162802,0.45172881941488874,0.5427172437810135,0.6390199756925397,0.7188664045117903,0.7415219634679198,0.7290687445209962,0.6838928285378674,0.665247123090595,0.6913133323971783,0.7065624725056645,0.7025520385177844,0.7098613388778938,0.729361152768665,0.7484753348648703,0.7711031617524422,0.8359046990362407,0.918292275183975,0.97971590983703,0.9367523758928784,0.8496744813086137,0.758422226296082,0.6614318668128851,0.5699917086745987,0.48928979250197346,0.5153888260827053,0.6056075536017118,0.6905993079165387,0.7428547000090582,0.740934684882222,0.7000929988816131,0.6653969249474811,0.6832708778491534,0.7018072290281279,0.6991018571548502,0.6936878554964443,0.7113956543893496,0.7369741288443155,0.756515392328974,0.8095135467442085,0.8916546960761706,0.9674852932197369,0.9600774290234342,0.8774202114373553,0.7844824032070159,0.6931875928651592,0.6490330236489457,0.70917131013098,0.7527245306394279,0.7470667884608748,HB
0.747575128990037,0.6725593486001937,0.5876955221347034,0.5081238069809808,0.45032121282152204,0.3981150772226154,0.3505987085643445,0.3261773721072214,0.3082284483072637,0.352898371059545,0.41801012434597373,0.43388575690934983,0.44251478485808726,0.4410963489025682,0.3657435045490648,0.2763709512762982,0.18707030858680285,0.10659282266038206,0.11414481791875447,0.20030124084405476,0.29035882790129464,0.38208485832445693,0.4674025804072105,0.5559007646542403,0.648861449910161,0.7301725494394116,0.7116108009506181,0.627044996210365,0.5421034516394744,0.47081232829697794,0.41579769142949397,0.34986777588725526,0.29536836773653474,0.3174404501926945,0.38118980345880826,0.41738227113728144,0.41809620046948826,0.44124070711100105,0.39620926402630496,0.3094029687573019,0.21900051418785782,0.13113773598314704,0.09896770198063076,0.1718795588610208,0.2635787814963231,0.35375123917986606,0.44682803067984833,0.5387553297345224,0.6290486575771579,0.7221482553711183,0.808966786306478,0.8188994521660231,0.7391372195570087,0.654955410906668,0.5699095991752947,0.4965174296354823,0.44183931235669616,0.378248103613786,0.3197627165974859,0.3377438511644153,0.4047385513310059,0.43877546557203817,0.4464887090292964,0.4678176065321552,0.41631977914300256,0.32892571078043575,0.23893118916828426,0.15024404452313378,0.10465924982055191,0.17134745530793327,0.2643915502297637,0.35633664829447265,0.44661809396509,0.5396499743935167,0.6304372191080054,0.7217529384965549,0.8088615493152036,0.8118806882130221,0.7299592013801488,0.6420763119377582,0.5625508194002415,0.4921274447541142,0.43653721320400085,0.37174157816700315,0.3088404271933127,0.3125343943492065,0.37622718295852875,0.4036703415947548,0.3900818094586296,0.3962585684382165,0.346519457269574,0.25764411628628103,0.1644585881965256,0.07410628199606023,0.0,0.027529242325235015,0.11634138796652432,0.20748160745085464,0.29840441550784935,0.39171227476733705,0.4838564396330557,0.5740063848143497,0.6659372389724512,0.7134023384103123,0.6464135703645888,0.5571624232411508,0.4720739607617842,0.3998670251907307,0.34720305314616295,0.28622041057602043,0.25177999797255446,0.29905254599844355,0.36697773060991323,0.39119864537862936,0.41747926490651777,0.44787874506172654,0.3973444348378591,0.308713706833338,0.21936701432465433,0.1360450570447625,0.08704615004341315,0.14143401441861625,0.2338868284460608,0.3260462502260225,0.416187283999067,0.5092563606974665,0.6017372626487392,0.6917106778802853,0.7786163097997094,0.7827663561968707,0.7011974671523276,0.6144540096425449,0.5335809053070244,0.4778970378864267,0.4887260827212573,0.5488357828231851,0.63331459031563,0.7208386208463371,0.8090743721675908,0.8959241681018764,0.954838666337982,0.9063210442227594,0.814441420614306,0.7214784749527692,0.6314527199946975,0.5391089594421197,0.44761782127126326,0.37425972565873145,0.40598409016183845,0.4781473351563128,0.4728546359693647,0.4285807526084181,0.41077685612016857,0.3769430551367091,0.30897274460815827,0.27748031585057353,0.3278883816607856,0.38287533861668965,0.4445791125942832,0.5262359026666356,0.6139374526033072,0.7024001960536652,0.7893274404811541,0.8577221086357754,0.822327464145924,0.7347727376154574,0.6429881668589861,0.5526517778395558,0.46080752023780713,0.36853684738289183,0.3195926494169987,0.3800980434104787,0.42535006385039553,0.414905988177529,0.42585262301197835,0.4113400022147067,0.34734507362242006,0.33801550383718393,0.4027211545760445,0.4633077215560859,0.5204943708216054,0.6009887163830807,0.6889714007017766,0.7771624954923291,0.8661665341520637,0.9533698802600536,1.0,0.9378661358499061,0.8506320137436245,0.769083737350611,0.6892353729679785,0.5989331899651692,0.505632728563369,0.41938497107489225,0.41235655535987237,0.4818733119513724,0.49312958482829916,0.46494943015224866,0.4603651656792429,0.42128274808810184,0.3550476213954682,0.3500475733561149,0.4149752044304511,0.47265342502460883,0.5340708851135261,0.6147885651464422,0.7028411961273888,0.7912289752512538,0.8814168044042459,0.9641180811418184,0.9632068896347945,0.880845283335242,0.7947868832899372,0.7177119215273506,0.6425522624472324,0.5550658991939543,0.4620240982135624,0.39337798618316455,0.43583296517676196,0.47152092267324375,0.4446838983377698,0.43776448680369817,0.41174007406146695,0.345828252411168,0.3254209644768995,0.3841661826442455,0.4448179989699801,0.5032546173031307,0.5826952980844194,0.6693715890844103,0.7578338960645405,0.8459817300175441,0.928025858885184,0.9360976125447265,0.8553319742945056,0.7643286306576118,0.673512380518088,0.5809525106227811,0.4917078861476367,0.42031176485716626,0.4459975811870809,0.4850355421425183,0.463248395999447,0.4536298697170592,0.4418746284369136,0.3794858817108716,0.3375278507185212,0.38436759399367837,0.4450946557690669,0.4990762786487517,0.5718611938034847,0.6595370841037247,0.7497272004789228,0.8375033948712431,0.9177286287421145,HB
0.4741950584427343,0.5326061322170943,0.5683217535518925,0.5307181447466489,0.5503472593826308,0.6465124190629832,0.7396539717245181,0.7524259808524127,0.6902870088167017,0.651450187400507,0.6042783874978017,0.5704475809068834,0.5199107188579335,0.4972826951422273,0.4791765815795465,0.4431369422651717,0.4185411957223993,0.4783054972012523,0.5582324738598046,0.6314653441624951,0.665246000151356,0.6526886870941078,0.6307321436496585,0.645362697843977,0.6804342813723046,0.6308786983424366,0.5344748203993719,0.43801978258315083,0.3373734080103909,0.23908624669442874,0.14165011004221467,0.042574017856850166,0.0,0.07672981347426872,0.17665958912083551,0.27289558152073295,0.3731486025907093,0.4743752732553221,0.5753548960051655,0.6724080253188509,0.7707230273528649,0.8399048811567473,0.7888788354381051,0.7181521064974155,0.6725728567754519,0.6110841019205109,0.5304680475410499,0.4509028710877972,0.43784614618525214,0.5085956171688424,0.5900607507606899,0.6591928131251512,0.682575003618838,0.6582167177740124,0.6424635231407934,0.6752827823313587,0.6731864592429955,0.5888757071186719,0.4888525138861746,0.3910516663983136,0.29317025449945106,0.1940107748331344,0.09746213288904298,0.006120123990852988,0.003491115785301979,0.09281136427007258,0.19380127204519942,0.29499691211905615,0.3939224726516703,0.4908159603222855,0.5917489511451111,0.6929439115061011,0.7913232423316281,0.8521084729947008,0.7978090097322637,0.7270919491439496,0.6776626735148921,0.6164442075258205,0.5388627523035698,0.46021051461980694,0.43341171373611304,0.49907894601055586,0.582213568437689,0.6503157641347252,0.6741758908865252,0.650244898400282,0.6246562113587393,0.654089762816199,0.6648769577296603,0.5871964898747672,0.4904214899095925,0.3922311652987462,0.292658582429762,0.19624717800310748,0.09634657804638364,0.01787856864696885,0.052012994938963886,0.1505751514527624,0.2517292138256703,0.34998654257276546,0.4474542994552156,0.5485138851078968,0.6485865148736683,0.7447155950548554,0.8262574459414307,0.7949351675125154,0.7234068558498472,0.6761339200689056,0.6181844509477912,0.5418760073259707,0.46510307890676655,0.441088605499292,0.5055097550908039,0.5902116421408614,0.6558672001000136,0.6720488213817197,0.6494121535704003,0.6290165617545773,0.6602097398571196,0.6618542839181989,0.5805111769019078,0.48126663076059123,0.38448722458933987,0.2854414768752818,0.18592184966529274,0.09329806674258428,0.0676083736573389,0.14998265617817147,0.2470886724413643,0.3481102267816684,0.44934123353787864,0.5505722940385944,0.6517976432639931,0.7515566292011142,0.8174542104902682,0.7693363565780507,0.7044882776228403,0.6582312014760343,0.5940442035656361,0.5148439876356452,0.4439696434791511,0.4450092178762069,0.5192192979693084,0.6000519526540551,0.6566653441465973,0.673419940016494,0.626125688506578,0.5496891849272536,0.47872760735570946,0.49878601318317045,0.5767942645438058,0.6471668329834794,0.6993895920151558,0.7541393580295324,0.8363663166803539,0.92615540816433,0.9589644137029931,0.8836858070725111,0.7882321381924615,0.6878702818685041,0.5910484016795154,0.5221898655107378,0.5771874171272124,0.6674532925001488,0.7078535630825855,0.6773582941075971,0.6587618707015666,0.6846819254103236,0.7001248450539008,0.6705135891357197,0.6006823932213456,0.5197204340681514,0.47213512731445423,0.5279360248733949,0.6073377000951408,0.6731563089582562,0.7189619537385574,0.7833092671014918,0.872672774289768,0.9565076001748805,0.9526424561233717,0.860545700854358,0.7617235279860897,0.6669251995283618,0.5762924948109596,0.5075104440724862,0.5602292360113172,0.6549241001535993,0.7033273276407066,0.6741714947410098,0.6492966953073618,0.6779761744315889,0.7001172518997982,0.6834982557160809,0.6242100505591064,0.5430036713478492,0.47908412615597257,0.5138466230169907,0.5966049672310689,0.6668406216668503,0.7174762919296005,0.7761551062624708,0.8571447924633042,0.9405709036742229,1.0,0.9466281718084062,0.8512273245198569,0.7539360877470289,0.6529031650359185,0.5561131100488321,0.541767940176346,0.6317555531794341,0.716031004872614,0.7255803007922406,0.683055617275445,0.6718543912313848,0.6995345834812865,0.7047856287680843,0.6617752801906962,0.5888082599532161,0.5051004540684025,0.4746270328210866,0.5412716700469875,0.6226746172537303,0.6869506623451154,0.7328404483769124,0.7994595480220326,0.8914461051504561,0.9675849837192139,0.9375175253728163,0.8459155730631134,0.7486755241228658,0.6511086918272744,0.5500252897751254,0.4502491918188229,0.4057832724081845,0.4845169709322729,0.5818544618930259,0.674461837711642,0.7111111933035266,0.6747641256455201,0.6636570683273451,0.6856333322651578,0.6922959188207534,0.6543178109933414,0.5843226232638332,0.5032264150560883,0.4572892284896413,0.514278546089608,0.5934200965777121,0.6570735691986693,0.7010242170375256,0.7672955375043906,0.8591963849630639,0.9417101066598421,HB
0.5529512725428147,0.6086191137734029,0.6465464597810198,0.6514318754921358,0.6651562278967347,0.621182162848531,0.536904928020963,0.44905512013117926,0.3596391367582423,0.2675977444833691,0.1776048577119133,0.08674951500900557,0.02683070250486308,0.07727427601678322,0.17053261624721533,0.2649923469792846,0.35912081529335066,0.44932638258046426,0.5417653291012958,0.6360456105384644,0.7269355026731394,0.8180821626722004,0.8823932612938894,0.8459246723638731,0.8248053781401352,0.8245680339394565,0.7716074420710346,0.7010390261265682,0.633727546442316,0.5973100135882852,0.6160400378083286,0.612278164349465,0.6116160601316272,0.5511829654407814,0.4649152106140724,0.37569012668256957,0.2841472201320013,0.2015784905838081,0.11418538229340786,0.023597987217177152,0.0,0.07561368305579841,0.16783145723388354,0.26225827437903854,0.3560285447099863,0.4457342152783676,0.5347887429953182,0.6126637579284,0.6899607932355731,0.7765284190068076,0.8627912754969151,0.8677481811521297,0.8157440903481239,0.8209857073875806,0.8032135345775304,0.7408119155535065,0.6703421817270507,0.6128382029465613,0.6162138389352589,0.6394390143930897,0.6397721189624974,0.6384881428060687,0.5684406883362092,0.48101172075025417,0.3918875903723095,0.3019648195646724,0.21028240528681735,0.12028615570986989,0.038837213674898896,0.04956529063548626,0.13853743732064433,0.23298376606774068,0.3268217229488249,0.4166232800264639,0.5097393915971125,0.6036162814991484,0.6934555309978079,0.7863881159790527,0.8730908007402949,0.8840623091252482,0.8303374053149859,0.8259998257671068,0.8117407538637282,0.7511686663428281,0.6890291552679604,0.6421466916088192,0.6502216217637489,0.6626535953423902,0.666907301572812,0.6180759053614906,0.53306838207795,0.4443713556553193,0.354761436585918,0.26393632830096087,0.17276398397153386,0.08134541151435443,0.05142445036112692,0.1267693124014309,0.21630477448861912,0.3098832091602011,0.40378539895367876,0.4936397254207468,0.5866351936073195,0.6802197016734666,0.7699249700304684,0.8608411899917501,0.8932183199416679,0.8524679774315289,0.8492650882348161,0.819037763656334,0.7550793274625838,0.685682715260385,0.638933897154766,0.6437824991859222,0.6440847403681504,0.6510857692903207,0.5939141035372544,0.5084904575187539,0.41997862676900294,0.32916036007472554,0.23837623856248252,0.1470694536067701,0.05791125133311481,0.005889822072911666,0.06445321719136432,0.1580419033981843,0.2525019956438402,0.3469625120386049,0.4413962082839123,0.5338422010260102,0.62404072641178,0.7179231721001798,0.8081972459116982,0.8790787930765993,0.8505391322238367,0.8232759509233283,0.8220687200580741,0.7703850239191787,0.7005612142548261,0.6340182140218482,0.6036740408512091,0.6219594250059246,0.6396367337295998,0.628907600713746,0.6456528447590044,0.71250878781696,0.7802299147796843,0.8371485658030082,0.8480710159252947,0.8659461947798062,0.9378390364000861,0.9810595340605324,0.9212456333177628,0.8438604965524701,0.7617640247816821,0.6691224170138561,0.5794189313258702,0.4859381946658771,0.39927854705224936,0.4032412567816969,0.48726861964339746,0.5743601136591798,0.6506596798549757,0.6755502196666703,0.6684839775006717,0.6586992371405909,0.6907793196911092,0.7576423858090151,0.82512155657926,0.8699039614473671,0.8709803565807113,0.9074407769834465,0.9819246053586996,0.9881585721563624,0.9091416198047382,0.818473007319177,0.7280634513519384,0.6339348543950396,0.5424942999237536,0.4675449502594889,0.4983753836532379,0.5888884970268367,0.6665382265546331,0.6952573545369432,0.6882640349501874,0.6719527027970758,0.6764537699439139,0.7383950218569095,0.8024144944051133,0.8461083463030692,0.8463095869709472,0.8872950859470963,0.9654728933170087,1.0,0.9317736135025414,0.838057858009335,0.7462400670903788,0.6555306937801921,0.5612631565963748,0.4680850057762043,0.3888206508531346,0.4060638851859448,0.49241249087221467,0.5799725951842285,0.6534575784701553,0.6727557887132374,0.6645042896857309,0.645792343592904,0.639442543480117,0.6977940800349285,0.7689633581921507,0.8288681415808341,0.8474047073913011,0.8426797316519523,0.9029206434739518,0.9796963844535935,0.9757439111489734,0.8940968334486188,0.8027326729739428,0.713011429075459,0.6198328790927146,0.5276214520431979,0.4372526493179109,0.3466884718063344,0.32975787547520036,0.4116355679415012,0.5016655489863246,0.5892156332315557,0.6405894443907096,0.6411015737171422,0.6389345407427365,0.6243304995996295,0.6748183125611953,0.7448421117634336,0.810950290333323,0.8504905388596327,0.8510454658699789,0.8998044482120517,0.9728203527619146,0.9716837259035023,0.8871753365903097,0.7956521159766843,0.7047456687073026,0.6107120624207392,0.5203547863304019,0.42817499977858314,0.3467509118488394,0.37087686021304783,0.45813760679877374,0.5464330449129506,0.6306065348703589,0.68568829246009,0.6845853385816487,0.6703721431269665,0.6586892795979677,HB
0.8056103737532386,0.864361369256719,0.9219665849822799,0.9467965284316827,0.9366220935793576,0.8828117997127181,0.826919018385362,0.7921185374368412,0.8119851075319742,0.839249547794778,0.852876739397739,0.8469932302665587,0.8507946639620909,0.8403629389915896,0.7772755836282079,0.702574941369431,0.6249633634219625,0.5494029426405125,0.47235083850253756,0.39414028668416085,0.3191638403137273,0.24110166226621033,0.1655787794705304,0.12402236605433939,0.17649588192728516,0.251101659310329,0.32901985108327914,0.4076551443973122,0.4829102401404095,0.5603501269461619,0.637172352582873,0.7128537686640527,0.7890721249640821,0.8617437085852111,0.9247641683402775,0.961843279215301,0.9811707455315429,0.9489152707616534,0.8889885197159864,0.8234352881884953,0.7664850220449003,0.7642618311845648,0.797473516984888,0.8264999413270255,0.8225557844078603,0.7642204934397409,0.6892898824297438,0.6132162946622728,0.5344184205397559,0.4580350485198401,0.38186352987933686,0.3029766985418132,0.22398784388979237,0.14507404091898174,0.07289285371641363,0.06423855513266169,0.13264945489979948,0.20949593734407906,0.28515341826396085,0.3639486927044907,0.44287116006179206,0.5193864491109227,0.5954115641825724,0.6726505843803761,0.7468465239928165,0.8200522017461668,0.8858234308373875,0.9223021331531097,0.9300632618173662,0.8836381384840412,0.8250801018099905,0.7826131238582618,0.8026795110736088,0.8407430808575427,0.8376460006573623,0.8345535667087426,0.8352891818265004,0.7811381016557565,0.70307712777767,0.6303384245783362,0.5690499258550878,0.5066198081484214,0.4400380025160121,0.36379610527602474,0.28485654439084135,0.20691256057471585,0.13189663063634893,0.05406090520894721,0.0,0.035757336639008874,0.11201535002039842,0.18884288050978815,0.2645895665537722,0.3433922805457022,0.4210214193902297,0.49618631630711396,0.5747693881601971,0.6537557081217787,0.732134787873563,0.8058107668646558,0.8747518746846351,0.9242660580733353,0.9435472127894572,0.927170136666215,0.8732861656979128,0.8155523216729957,0.8008809651845086,0.8337351800356564,0.8575643992971026,0.8509526000765905,0.8421407826408174,0.785015633644529,0.7064899870072918,0.6275913279220825,0.551322620162663,0.47507092793804795,0.39918819334340094,0.32986867545138154,0.25480333480645484,0.17609139230807047,0.10006348056968672,0.034282437622970785,0.049141559145695485,0.11952796448372979,0.188518242948004,0.26573835245694477,0.34380020717557114,0.41878179869119425,0.49707605982742753,0.5743042398125441,0.6497369093823624,0.7284021223078692,0.8028830525429035,0.866308020606537,0.9188688387924018,0.9426554146980731,0.9360069552388285,0.8831723457050409,0.8248667167360949,0.8052770707747738,0.8349770558374711,0.8631715642829093,0.8628337086669258,0.849059561543073,0.8884977947210968,0.8909363049476122,0.8764331882939602,0.8469659698573533,0.8293889698841401,0.8704859511023844,0.9303923950689509,0.9687076171902432,0.9569200531290444,0.931497535128632,0.8764506187768941,0.805613428734123,0.7318534059914753,0.6549125189363462,0.5798600046626656,0.5014264915016549,0.4287751840997509,0.4263445244557996,0.49898065739425945,0.5773554913678555,0.652368798366259,0.7300700887871449,0.8051703334708875,0.8698228717173635,0.8750905550589503,0.8729086557999749,0.8716562916698158,0.8446409342486658,0.8238981306902647,0.8656767664767215,0.9246544725131449,0.9640735296869861,0.9584712513453303,0.9301477680633253,0.8716649297398951,0.8001236842549642,0.7264590246986417,0.6514214930389396,0.5731596174454572,0.49793760485261873,0.4204013448455751,0.3418046863642123,0.2905851725307215,0.3394611451809003,0.41779271939274987,0.4933938186286919,0.5704032107427047,0.648444170370111,0.7234153441302258,0.8001950871206084,0.8659077054784502,0.8703894250860452,0.8519977931528444,0.8590763316734524,0.8615775191350594,0.8268469393792642,0.80971214961022,0.8584282558498372,0.9173313691015426,0.953102945534717,0.9418368084898184,0.9102756769868874,0.8527537666543202,0.7815868279701302,0.7101987964469884,0.6413002697750669,0.5657583349623837,0.48953301357120405,0.4108448888413962,0.3530597721033537,0.39385638229034803,0.47186486059195576,0.5475590634210051,0.6244208896894093,0.7012109662013637,0.7768454990278525,0.8441238533093566,0.8552442982259224,0.8371152193103301,0.8068023951576441,0.7854373470626642,0.827914853658246,0.8956862766695859,0.9558928310338805,0.9999999999999999,0.9950750742541362,0.9684104926059508,0.924159760831566,0.8577545539427693,0.7849517481908409,0.7092329425003411,0.6332035201877242,0.5561632222985586,0.5305701611548914,0.5942853816308346,0.6702391903543913,0.7480142074220829,0.8219491155610649,0.8812459210118357,0.8787469974038672,0.8667996563621184,0.8663027302139997,0.8713480642009471,0.8541210665007235,0.8278491356540492,0.8205921329680933,0.868918798180767,0.9263151491051659,0.9681528355638475,0.9622430571687602,0.942498109436081,HB
0.2717949708446802,0.34760739591835177,0.43700575812782694,0.5252032355891773,0.6066751330424679,0.6979034654987389,0.791761932538451,0.8553883613517862,0.8029425173759729,0.7077527965705296,0.6097171742698261,0.5127951561677423,0.4124148548173353,0.316273287191973,0.22811035467230456,0.15218136705456597,0.09136934057833734,0.03778120164012,0.02482192102872438,0.08079223313147144,0.15576408725968216,0.21526610907615018,0.25582336448385135,0.3292407774759808,0.4172276478579483,0.5023643225496414,0.5789881338090185,0.6714708528906413,0.753101731817622,0.7335829422833774,0.6423813349253412,0.546356876411671,0.44918049137653837,0.35122103208985733,0.2579565664372522,0.1766595229000859,0.10665203794692646,0.0444721694661796,0.0,0.023454222596795304,0.08893108521056259,0.13093255216053867,0.17752539151832303,0.27455206961424994,0.37674242993689855,0.4580620720012004,0.5221751348419746,0.6039243773865154,0.6805737197344534,0.7560764776642886,0.850360802703325,0.9343739068236124,0.9190382462281134,0.8259161527572448,0.7294052161668957,0.6410940419869143,0.5475087395394592,0.45095281864327197,0.35608565665784686,0.27309300459476005,0.20574297748832693,0.14408490573144284,0.08932719990788851,0.09458898311649866,0.1599798072649241,0.2301681397287253,0.2648286888952628,0.3037338900025023,0.38579915953083754,0.47873225923085994,0.563418484725548,0.638209861821479,0.7307194467159565,0.7976565575388738,0.7449904131213924,0.650586901990709,0.5597715683249666,0.4702577923162422,0.37659035682381903,0.2840385693325621,0.20902691283443253,0.14546408944747835,0.0856792596360989,0.06780434235915966,0.12206276145751216,0.19175268128706335,0.24426597243041825,0.289915249028068,0.36582883317863824,0.4572477245193317,0.5477218380809311,0.6254368073855193,0.7127079189633713,0.8043000436446538,0.8397088729568537,0.7680521529528687,0.6717476811667412,0.5747446317974995,0.48054136053889296,0.3930464407019264,0.30174669035050516,0.21494444847536232,0.14844629691106304,0.0914921124597744,0.04721977149046552,0.0702076840255228,0.14037126029674574,0.2047579386870365,0.2488580377329449,0.3166205619035195,0.40125625998393744,0.4908061709792414,0.573638781320894,0.6496475774715423,0.7406033338782464,0.8064476334341676,0.7566710076603235,0.662446067250588,0.5652717812430085,0.47044619552361866,0.3847983617962959,0.2951161152994627,0.21164547225304708,0.14604866116369597,0.08374253950615385,0.053167971457464436,0.09805664790901825,0.1602522085960385,0.22687406423904244,0.30936668486554775,0.4048555745614003,0.5012114949946568,0.5984692633935557,0.6942860345038483,0.7814457675317165,0.8572536849432068,0.8488136002253716,0.7652316453441356,0.6744368225772069,0.5957916247258398,0.5233966560899367,0.43749187552373947,0.3501471956834362,0.27515350425064977,0.23013131122694508,0.17050404393864882,0.09680651674915297,0.07105591209667861,0.11779350033130276,0.17602401885109054,0.2479329542055383,0.3353332780103865,0.43371415039112315,0.5306422980479591,0.6279991635350047,0.7257563913246997,0.8211689714830853,0.8983061765044004,0.8918917875649622,0.8091391139537257,0.7176222812021887,0.6321565652657276,0.5487697346926758,0.4586265865709641,0.3710394137891325,0.2972052935832875,0.2533137628807237,0.19729015038191788,0.12660375819440484,0.08961942130799261,0.13327411413506385,0.1952261553491006,0.26564846456916336,0.3504488705620591,0.4422335358378694,0.541470084235656,0.6407367368410933,0.7358963249871905,0.8289195222888873,0.8783644914183085,0.816376850017524,0.7259694932535844,0.6390747321069045,0.5623326094067139,0.4707276424955892,0.3817146349321524,0.3080763891771098,0.28200693999063897,0.2310811768027482,0.15926504839124478,0.10964652496203375,0.1454692152092265,0.20614743595299612,0.27296265517113827,0.352309610271793,0.43366211636047713,0.5266825150702669,0.625159889635495,0.7268244008178494,0.8246168690402204,0.9203971597762112,0.9999999999999999,0.9807729986969608,0.89154681498498,0.7999878720906447,0.720471094470465,0.6372184554564501,0.5500521444207201,0.483566770224673,0.4053239529727778,0.30914330217230857,0.2136460664416232,0.15081595072338372,0.09009579756785635,0.030948976256524374,0.047188615954684376,0.10722183297681975,0.1763153094853216,0.25508230719764724,0.3354788154488296,0.4285715563815359,0.5233708909667812,0.61298345942672,0.7103958176695654,0.7989674065258613,0.8167793267198543,0.7373394992870334,0.6432532585910214,0.5623448503565233,0.4837849914126292,0.3919683841230476,0.3103451328173207,0.2565842741314449,0.2148636455159848,0.14805135076424414,0.07614932034261579,0.051004306399647925,0.09857756329817868,0.1575428467358475,0.23390313061356693,0.32227999340383795,0.4159068984443547,0.512660247746923,0.610364476655363,0.7088851007956437,0.8092271233089064,0.8984468923999859,0.9193984649790133,0.850590338072072,0.7557001889983318,0.6619248799335976,0.5804215276725125,0.497360457604226,0.40475652633920933,0.32229558153151994,HB
0.6448028940144688,0.6517893739127586,0.645946402598576,0.6246969448808645,0.5510107757687774,0.46993491881027727,0.3866426253166051,0.3004460944747318,0.21440897975846904,0.13154740689605018,0.04815937168571269,0.0,0.04996369707920542,0.1339805723541582,0.2202463523414561,0.30442675530967633,0.3877743265784793,0.4739603171663187,0.5598300230882154,0.6424604699077681,0.7276313143393727,0.8115148310232219,0.8425672706405092,0.7986012708360124,0.7814899637463848,0.7423931674539075,0.6808868236112717,0.6240660572475992,0.6218468546778403,0.6603150058687417,0.6597527231802349,0.6569079670337732,0.6195087325976791,0.5423439553408747,0.4605399321064705,0.3761514028021339,0.2898708582184396,0.20509900546449264,0.12240747184091474,0.04953897783843558,0.06509452822702402,0.13633362354922,0.2064696676150661,0.2822145387774493,0.3549675122403141,0.43220976261183186,0.5166845769772429,0.6029770837341812,0.6877708673012024,0.7706197611241979,0.8520109305623238,0.8608361580893951,0.8033891753413807,0.7818491722901988,0.7445531191590363,0.6885041292874055,0.6346756610084651,0.6221023269051424,0.6598240719699708,0.6683574345518357,0.6644898433775216,0.6263658201078957,0.5494309803818787,0.46764580915274,0.3845010726595941,0.3005835142837623,0.2143176791096518,0.12834338234646817,0.055532369713921725,0.06785358654025972,0.14905107918859148,0.23354737780632914,0.3166138004499931,0.4027299534341142,0.48906500258990426,0.5746954900866134,0.6572216807575436,0.742727781983282,0.8273810417822118,0.8773154282699906,0.8317032216984139,0.7968818766328021,0.7815244802294651,0.7316270706227032,0.668959057810383,0.6132077871234363,0.6123073408579147,0.6499643780719115,0.6541853525809427,0.6495834412485222,0.5931685427969373,0.5128571340372257,0.4307324894847161,0.3484237045711235,0.26389689072845834,0.18135047129174278,0.0960617118795706,0.022231670185019453,0.040077932598456434,0.12220212724415527,0.20694908185374375,0.2898293838325212,0.37587404053809603,0.46210093732496216,0.5444842053605508,0.6188806664951423,0.6920894783347927,0.7631535754837215,0.839494562155026,0.8738242364373627,0.8200809630819366,0.7914958035310435,0.7654083886559194,0.707998935842147,0.6454677691458686,0.6135728413977489,0.6431716284492804,0.6603741216766307,0.654656816387471,0.6262161934970568,0.5513611641645463,0.46912332668854806,0.38666763560275197,0.3021722683902709,0.21950377183392375,0.1353977920060254,0.05346475744484494,0.011097636737578964,0.07131507066406809,0.15500740771465446,0.24127828768856,0.3275649203442179,0.41173026876541696,0.4950910815227394,0.581279052604509,0.6670182875820934,0.7495696053581327,0.8322865884944384,0.857189368398589,0.8035048543640123,0.7794598613066797,0.7455801773822545,0.6873767632821519,0.6280769598075611,0.6092730984021402,0.639837011314578,0.6986356216781275,0.757007903515342,0.7929104941242229,0.8210787393729453,0.8888944290198157,0.96663525567889,0.9829537266729171,0.9133414301334577,0.8292415556296537,0.7456654125009091,0.6617756675039079,0.5757053070729482,0.5080204651039615,0.5410469676826133,0.6177501419442208,0.6711379940007219,0.6790283029235806,0.6788080736062163,0.6465575308352391,0.6471032097311429,0.6994125127754439,0.7602701929414609,0.8026946080246747,0.8132965750472121,0.8571025285380438,0.934224317610824,0.9851676168739876,0.9365478898010438,0.8552030828996318,0.770967820578637,0.6882620225359715,0.6110411473000243,0.527886080404747,0.4416502059830655,0.3558719622770439,0.3036002940186925,0.35937540115439814,0.4414886093879872,0.5269074514739118,0.6085678722493111,0.6678578981975315,0.6780954530446165,0.6796552265534566,0.6510359040236954,0.6285700442666515,0.673388760551999,0.7367789295053891,0.7898956543515334,0.8148583477275209,0.852597531935644,0.9259418134003705,0.9940128279970388,0.973849515758969,0.8943984219959218,0.8112646873576284,0.726034115751485,0.6434906405946494,0.5584728706521535,0.48212292216991304,0.4638302541234296,0.5352015435664436,0.617229768003851,0.6776070906768882,0.6852053645441721,0.690723042587097,0.6654028702547455,0.6387588015740465,0.6790610203593436,0.7397212667639991,0.7873473124928129,0.8075303792843462,0.8571367381248058,0.9337841367513289,0.9999999999999998,0.9762915506106531,0.8969878733514198,0.8117057808923975,0.7289620506134965,0.6440004959581263,0.5579150524718983,0.4942515008746732,0.5338029124127348,0.6131753528263075,0.6723760347840336,0.6793817038166031,0.6824449250948085,0.6505373685099739,0.6449598375238768,0.6998512246030335,0.7614637188742867,0.7991166908144018,0.8127514218833913,0.8694584241539851,0.9457597787521286,0.9819697412132018,0.921628173505284,0.8391901822636407,0.7534744466840663,0.6707126103009299,0.5857765798412893,0.4994581780503613,0.4166898758341431,0.4018444953551257,0.47635659605044434,0.5579354728032965,0.6350253457113184,0.6686075367667372,0.6740019254971915,0.6686822146899942,HB
0.5526472262797966,0.5410760344892354,0.5217774132460318,0.5308621675535314,0.5513999324664027,0.481307010711302,0.3742140648455996,0.2639504609885077,0.15294267182741783,0.053345608312777903,0.05815793216877574,0.16953832893243215,0.291696603244072,0.412192495081394,0.5251745561024075,0.644361502105554,0.757207068024464,0.865536201875222,0.8950567362571,0.8142181799322601,0.70792120649035,0.6112411733752885,0.5355850121010093,0.47978390586964315,0.42979749122072164,0.3790147525073233,0.3529486192189135,0.3978775131293819,0.465539226957594,0.5227588530795586,0.5480347552857738,0.531122107938915,0.5305082246702932,0.5759026056580261,0.5892139601234336,0.4967854174170654,0.38372501041286156,0.27354781627700686,0.16432499898687802,0.11267026399568247,0.19439899147385242,0.30899775751817193,0.42634952671019266,0.5409579855919855,0.6597513524845722,0.7731355763694046,0.8861220849108791,0.9472100304268278,0.9028153196724449,0.8078518619625328,0.7044536114718292,0.6104704311631024,0.5408753036749276,0.48403823693282666,0.43206034718672326,0.37920654092323525,0.3749693210759799,0.4367451895086518,0.5071820759954937,0.5543084370557168,0.5603713183735697,0.5325855612255901,0.5358155722190974,0.5660253693882624,0.5260881892093003,0.4222685604177445,0.3100759938887079,0.18990403370568187,0.07779884464362175,0.0,0.054335390143070095,0.1709533545554902,0.28847731963302703,0.4031541364262847,0.5233936845741054,0.6363381424014687,0.7533096557694221,0.8631513079172484,0.9165855691992011,0.8525321497149783,0.7539243881330084,0.6538538906963485,0.5598534287060608,0.49387917083294397,0.44337450199734674,0.38991878406315217,0.3432486901740779,0.3555957093468982,0.4219044072670026,0.48823140791627395,0.530259396886084,0.5402020507509993,0.5246039060243048,0.5395700448594729,0.5633160011061595,0.49723299220766837,0.39077418500433736,0.27610469171275875,0.1560760290868064,0.04871361020597953,0.015910562719194665,0.10933101287665092,0.22893769552236076,0.3419523789357375,0.4624967603782504,0.5777917734538107,0.6938153031172689,0.8062820424514903,0.8983080498340543,0.8774007082864492,0.7841408164924459,0.6824811261904862,0.5854980964242587,0.5091217077393018,0.4596430219205274,0.40956397447003945,0.35506562777608486,0.34282883740484893,0.40025408230370396,0.46546391885540594,0.5168744338464184,0.529333758655377,0.5150974714620742,0.5235746467003901,0.5440378060378124,0.4815337564525639,0.374816411366766,0.26230405087732556,0.14367802379777417,0.04875856086998476,0.06945216964383638,0.17558970312112687,0.29374797822134124,0.4070188756420172,0.5257560530433372,0.6393442277540231,0.756353577777551,0.8651314351443053,0.9474111543750312,0.9200280285643734,0.8240720575867848,0.710142968006529,0.5959905347254977,0.4762114790599319,0.3812203266811114,0.4133936990385336,0.5192346989401262,0.5921789870733751,0.5865302612486252,0.5554692951220401,0.5621520650081195,0.5682391840283252,0.543688444769387,0.48912923953351717,0.42264853183813544,0.3867736910295334,0.43295868304055185,0.4832965784794483,0.5335892469658479,0.6045143825873991,0.6985080227740648,0.806911696761778,0.9016602022103344,0.9710433339763771,0.9659755590250341,0.8806789823360894,0.7721267982980433,0.6558815072380075,0.5422329088676601,0.42684569417826235,0.4094681259687851,0.5061777566413515,0.5937154302788721,0.5959709350735163,0.5679645899545118,0.575725930625266,0.5766921249570087,0.5527897765611578,0.5044564842786841,0.4344575071476273,0.38633364256379243,0.419910132510654,0.47290090664113227,0.526401409164587,0.5926873185135006,0.6842002127489777,0.7923789774853311,0.889787405677954,0.9659610635717204,0.9913133697803684,0.9202459934645617,0.815848547291528,0.7261120494781874,0.64250352341204,0.5386844474289396,0.42227182578905986,0.37841060928392656,0.4671526915090429,0.5683146976538245,0.6068293189327822,0.5798632340688266,0.5770740977032798,0.6050466091061941,0.6023576660902785,0.5714599592874561,0.5149938474736677,0.44040785180913566,0.41863676174864617,0.4696377385169488,0.521944659923451,0.579933171868126,0.6554272878979632,0.7495273260501376,0.8520356191307012,0.9463695316921608,1.0,0.9637815631051567,0.8626691241988023,0.7495837141125561,0.633671161615105,0.5184313145408286,0.4282403734724236,0.4752466564126203,0.5782422505870253,0.6402631934487877,0.61087597433372,0.5696465813831755,0.5770526044859738,0.581201818501099,0.5488887388787922,0.4873020617530395,0.42336616571960883,0.410363576983209,0.4538061441279688,0.5076268244793307,0.5597069028227075,0.6358893774410608,0.7332305087030586,0.8223778112962261,0.9073798120571177,0.9704467156473302,0.9456636064709638,0.8456884543885002,0.7328541632690189,0.6153026452800718,0.5022385351211258,0.3837130214028803,0.32615977734161405,0.41046187730147965,0.5167133781251372,0.5861134710947158,0.5815384100187777,0.5567106027846789,0.5763273507566025,0.5865710639969413,HB
0.6956437472547351,0.6790735860052116,0.6661284211221269,0.6473130826968175,0.6362698025425263,0.6598714483149765,0.6851900291744727,0.6200822722519791,0.5307724966773398,0.44031523118250526,0.34613760689246886,0.2550950651039915,0.1650620543165009,0.1423854018617272,0.21940321606981716,0.31368079042126706,0.40973243284979644,0.49960208241432447,0.568216846190719,0.6354810890444426,0.7107247029748894,0.7876970985347952,0.8026454012401797,0.7417268553846549,0.708781141283284,0.681849063513119,0.6555814917006352,0.6551323385733528,0.649361582354742,0.6521033173617349,0.6834052352782823,0.7189177856067605,0.6656693597913889,0.5771802104351315,0.48482843198420567,0.3927464965857781,0.2982921608011164,0.21157555593334365,0.1955573414289976,0.27676956946293885,0.3691879946474882,0.4650366946436527,0.5571909442436312,0.6502368670857429,0.7457225938613848,0.8076004870315551,0.7653935520067424,0.7071446200626795,0.6525879347170888,0.6082448703774127,0.6107324158745134,0.611743085284847,0.5786401494507459,0.5898231313560428,0.6488029770286888,0.6534903663364432,0.5744840022577687,0.4829396342062201,0.3902813977086895,0.2942397560288327,0.1986950293563715,0.13279938768238753,0.17729275797287136,0.268930266136583,0.3647194461119836,0.4563642408877008,0.5499986693868991,0.6460808272003845,0.7383895866455649,0.7734958551861407,0.7151756117016134,0.6755875573211857,0.6586322363951257,0.6753392315705472,0.6793987648866099,0.6804868254954882,0.6841656797451628,0.7244712855029679,0.7715279097249702,0.7306613074920286,0.6380905182765421,0.5422788407045062,0.4507459749778885,0.3572137025134253,0.2681191862076623,0.2386868035537656,0.31560608030376536,0.4098415775118527,0.500925037987077,0.596522791542751,0.6926505534053463,0.78692927163495,0.8749936879401944,0.8989677800340895,0.8320284284525502,0.7733866619514874,0.71687926684758,0.671737052443849,0.6361467868508871,0.5795489151022443,0.5254262993938957,0.46717401724677654,0.4480481944488416,0.47825789691005094,0.44097045468704177,0.3520542770006301,0.2597209177515941,0.1688632816724731,0.07585724519080084,0.0,0.02236459021344539,0.11278204695104455,0.20365706298376296,0.2989332807390176,0.39487292573109767,0.48684959444361586,0.5793534918587567,0.635697028683284,0.5949509656639346,0.555501003224791,0.5125351539702027,0.496672780310211,0.5058517019573775,0.507408972891502,0.5108339313958298,0.5581947974961551,0.5538641977995625,0.47235395046610595,0.38189134135718383,0.2907373827668577,0.19753281813980406,0.11552927821819636,0.12253425921059846,0.2097468108077808,0.29151767987891475,0.38152346443334506,0.477518310113617,0.5706749621608743,0.6627162061778301,0.7532173798122294,0.7691754645913299,0.7439890867251567,0.7263240407417532,0.7177516004220924,0.7584711215916228,0.7702171150202121,0.7587947944021017,0.7783938186782348,0.7994914460794199,0.8661180532131308,0.8709495995225697,0.789535928892022,0.6947043484811285,0.6033676822641328,0.5093369932944823,0.41841817613359933,0.41172828578126297,0.495130636378848,0.5802629331417951,0.6168716864166183,0.574763049371607,0.5397106596223734,0.5464396461111453,0.5322691801101559,0.5349595902613263,0.576622754779034,0.6218408726755377,0.6879152235403784,0.7365807448300928,0.6915953633145732,0.6002263425540556,0.5082091129348646,0.41509554417009553,0.32009558171867114,0.2730749972076554,0.3445525870326773,0.43359787168502584,0.5080324198819098,0.5157393983616493,0.49156418868717433,0.5330608327134342,0.5934681063000561,0.645606595080035,0.6918464035694146,0.7348014078334132,0.7885146149687076,0.8492269942350906,0.9231149421728823,0.9999999999999999,0.9985845376560322,0.9153791624116726,0.8243922010023194,0.73489280623062,0.7212768570428266,0.8005874036625901,0.8477549974228175,0.8085530611160211,0.7465157499018958,0.7215045056024635,0.7174682966551483,0.7233510241140858,0.7037142977250092,0.7037584011272778,0.7281445917882897,0.7914264423003546,0.8708231076645577,0.8815449914000536,0.8038177223392523,0.7110403686799657,0.6187686696269906,0.6010546867911734,0.6746374013562951,0.6961097134095188,0.6419438811384742,0.6086478685664661,0.64082870974718,0.6428118302306692,0.6445282249077048,0.6903477666431702,0.7449582745697373,0.8045507991449398,0.8825293356546634,0.9278508041965897,0.872190764354538,0.7798146665233875,0.6851202067432586,0.5981877801246523,0.5846866871501352,0.6692790559557055,0.7449064198327559,0.771166472261621,0.722984983874784,0.6848643734084726,0.690567622690284,0.6918764142366979,0.6926250891374056,0.7253395985181613,0.7642704835549073,0.7771407308505319,0.8470844119867252,0.9150361401932258,0.8944899049658713,0.8086968225867316,0.7142666030813513,0.618240307270881,0.539827978512892,0.5752648388043539,0.6621213949785595,0.7286546498791823,0.7134675506631519,0.6743664389651677,0.6808534632207784,0.7010954929856085,0.7170066923336241,0.7368640642627259,HB
0.0,0.05214784221622448,0.126894080703015,0.17434966918017203,0.20164884080931156,0.24137215821895408,0.32857058826802255,0.4223975209342574,0.5173339708668798,0.5986181582949965,0.5627590249885543,0.4693350179678679,0.3864982375634465,0.3224879709913444,0.2910856118692047,0.27829125183932746,0.2550162681795778,0.2329755541516325,0.2426696346111623,0.27098945867292534,0.27892955819798626,0.27866527082659664,0.27001291273292494,0.2229426768771532,0.16859997011461902,0.17563682263835112,0.22736986052801167,0.2744449021596973,0.27890604400005126,0.21231239250037048,0.18207986374638852,0.24750172547436922,0.34490221788379904,0.44118840447796326,0.5320109766496286,0.5408313740169663,0.4561882367522878,0.37084188893864334,0.3113771375255274,0.2858976831430171,0.27475847770599104,0.24850465779889763,0.21715904656435647,0.23030735527045154,0.26302444874137487,0.27680646823708166,0.274968440563756,0.2592018210598006,0.2080090246750912,0.16350306190359776,0.19069124637318047,0.24103248140925393,0.2781123024354839,0.2713392115372917,0.20338795021655431,0.20838741776427971,0.2871427335804646,0.38125958499818924,0.47490426964258226,0.570556887276614,0.6365128094844172,0.5681474139837468,0.46755032403407815,0.3821080987291128,0.31690127932883616,0.28069455252145215,0.26089101491425426,0.22911716468676202,0.21450444085578324,0.25434882500566536,0.2982786008866787,0.32438554580812773,0.309809564595803,0.2840247057456917,0.2680111078710874,0.2121487283392316,0.16181164122053593,0.18616969256561466,0.2456654090427548,0.29832039675017574,0.3278155247653276,0.28204374687345957,0.2303059067511366,0.2785490295995059,0.3657573533739087,0.4619531944651294,0.5576818314777003,0.6502496596329788,0.6731996587412412,0.5846471259618939,0.49218677053488125,0.40782349254252703,0.3432410157815575,0.3115781956745778,0.291353508930015,0.25707849768222113,0.2274373252058295,0.23205879544359598,0.26469073882235583,0.2915152347602432,0.29700967952959534,0.2717808364614036,0.21368905374722957,0.17237591593270918,0.20395356926743613,0.25328243557483643,0.2758441334083075,0.2486762374875524,0.17135970255511634,0.149470059534895,0.21801116363398187,0.30842021164584743,0.41077984316571814,0.5103229967409029,0.5659976276136123,0.4975848827300753,0.40655019101073253,0.327875684644545,0.29583846441803807,0.34302685886235973,0.421526677034348,0.5127252158160658,0.6120671220784131,0.7072582388837805,0.8081645791449408,0.8951975565472237,0.897507859437092,0.807276501572191,0.7105402124445563,0.6099222383000626,0.5144562723355419,0.4180484534821305,0.3208632809281011,0.25777575059791435,0.2928566998749498,0.3088382587687575,0.2864651594281187,0.24080099900992558,0.21976869770190266,0.27292498625747985,0.3153855369894223,0.33094849075752264,0.32323092981777823,0.29897760569175236,0.26731693337863227,0.26865762647907654,0.303189417821049,0.3312080925111689,0.35223915981072107,0.39711378979963663,0.47367826411949054,0.5726886481894409,0.6680070201128305,0.7635313324721269,0.8467279073423282,0.9369608216054142,0.9999999999999998,0.9472888169195948,0.8500879285606138,0.7529108880775868,0.6516822609161308,0.5572457394006809,0.46279238102920206,0.3666318408714555,0.3495525231237704,0.3740823036060785,0.3473628533902282,0.3001288815947727,0.24139056177755602,0.21137463291055836,0.2640139802870205,0.30760961037732937,0.32696014090766545,0.35038385237014036,0.3548960312084717,0.32751183504387504,0.28373291035601045,0.26662663295297406,0.29511872270772277,0.3149263196330403,0.35142442373780014,0.42051824129795423,0.5101769924105322,0.6060039167127262,0.705213649492135,0.8023846166898745,0.8982346956175349,0.9495617721205603,0.8842642930173368,0.7846721308028914,0.6888291797432522,0.5868868974847812,0.49208859116970705,0.39775192978614027,0.3172652027384322,0.3172253725333847,0.31074484540667147,0.2769810021806869,0.22864344045651896,0.22197279903594658,0.2776897675910821,0.2994014981486317,0.3086201366578101,0.307488140824288,0.28486029311319605,0.2594708610356702,0.28194209610377974,0.3074700809782529,0.319045161778887,0.35685060878284136,0.4328383618546374,0.5231381869541425,0.6219848028116186,0.7182870235740648,0.8180096985440597,0.9129387729638261,0.9627741208677587,0.89878583585781,0.7960653370399651,0.6926675631285046,0.596421078977315,0.4985768095349241,0.4035483170067755,0.3133371469938733,0.3013056924499835,0.3257082457811098,0.3093105812133754,0.2677086686097503,0.21779818728289757,0.2340745781653184,0.2883592189272157,0.30896671230499884,0.31149621165113905,0.3156828929680311,0.29360273394605163,0.27228724963720996,0.28951679122066065,0.31461061464278406,0.329301202521074,0.36772072895645924,0.4455362633249591,0.539162946708686,0.6368650819252293,0.7335074775446186,0.8350699614224186,0.92808747906521,0.975925596411005,0.9102315647455359,0.8126721970431923,0.714337318247235,0.6168775430587579,0.5202890292419438,0.4207223267437359,0.327639220182512,0.3305948249891626,HB
0.3992377260226968,0.45068907868821617,0.508278566264429,0.5428872623069153,0.5125787333900979,0.4330860837412057,0.34342163681247506,0.256038483990228,0.16764502019123373,0.08122456763844066,0.05501229683945952,0.12412449202287046,0.21442030627999087,0.30073764584819596,0.3847272648250474,0.4628331255774588,0.5426074130343649,0.6316518281561384,0.7152503735550412,0.7044574523218646,0.631425538584968,0.559319901285879,0.524464856262261,0.51886186370144,0.5190071940249986,0.5296081269212792,0.5484877720381643,0.5836031419856106,0.6044347776854392,0.5865067505345977,0.6006275152478443,0.6251949053337379,0.6294812959455488,0.5889812326704745,0.5026137817674537,0.4163714614900028,0.32681904846018084,0.23997906495606613,0.1522566500513749,0.09543693287948429,0.13411513321965318,0.21911106165566008,0.30693100379265614,0.39487134493430076,0.4869693436391572,0.5773285473203106,0.6632825688503626,0.7537406320285133,0.798694110354435,0.7378984813560071,0.6715610733430376,0.6348574403987207,0.6171394224891223,0.6126629629419756,0.5940911029951707,0.5662868068616634,0.5861762615765999,0.5812087327462515,0.5675455729768656,0.5883975346599807,0.5992879310376408,0.5770796123332583,0.5071396375779816,0.4275044441118704,0.34236553228776756,0.25126820542446626,0.159041527585134,0.06751904048267465,0.0,0.029414648711091118,0.11677015071395158,0.2036888682090655,0.2926550371931985,0.3848346768559715,0.4769927118815799,0.56552782137279,0.6528471377239221,0.7405393995308583,0.7520386223397778,0.6798886776999701,0.6202783013595005,0.5898961252781226,0.5745144477130614,0.5665631035174942,0.5416562755279622,0.5490170652120377,0.5793177780989495,0.5700755698272867,0.5741029816135476,0.601645473998858,0.6081823924965505,0.5732558954361427,0.49304771743989406,0.4048629100712172,0.31771209551452284,0.22686471763475302,0.148159147941745,0.14262855401625796,0.22405952519240968,0.3108840080631964,0.39991286096912193,0.4916160659619845,0.5779078297961237,0.6676855026504259,0.7511599933159238,0.7430861745983149,0.6782898928605104,0.6409215640194555,0.6333036896627938,0.6312783223336343,0.6254496029464712,0.6022000631255139,0.6159413244443449,0.6193838542489566,0.6015960811093938,0.6220812178447775,0.6451121727164247,0.6404827319039165,0.5745616358220044,0.4872226838773831,0.3958511880875438,0.31770940789998925,0.23695422518496356,0.14587860070264047,0.06366848081864984,0.04252190330270089,0.11737143196529598,0.20297461765365854,0.2940455497879634,0.38163110112566667,0.4698876017275718,0.5620214691359803,0.6531089894646208,0.7370579156895275,0.7704183290000365,0.7073791011861986,0.65387904487401,0.6309529609079657,0.6283860113128018,0.6188371302484265,0.5885450561001998,0.5946817438577813,0.6378442676965334,0.6400898791437198,0.6657748899585331,0.6842732586463279,0.6895569857742999,0.6991683730434418,0.7394047754032725,0.8108731789100482,0.8884887606020985,0.939329516682223,0.8924091973503533,0.8055783226836158,0.7189095045966668,0.6270147729674057,0.5347878380819474,0.44636873168890323,0.43455440399821954,0.5182379340100961,0.6049490844691151,0.6772854075757063,0.7020243478878744,0.694636365409463,0.666883732612716,0.6631303922235546,0.6844841197213068,0.6665099783653278,0.6664465944632313,0.6857373337707514,0.6925794496093914,0.6972802656922051,0.71392923516809,0.7753617417598334,0.8574613028998895,0.9442535951264818,1.0,0.9545862107048632,0.8713704406336903,0.7821845724297648,0.6915838124686694,0.6057521949877268,0.5180642780130237,0.5046286664147835,0.580756186565382,0.6467530985490443,0.6634905338669624,0.6596508541596556,0.6351221839400308,0.6228909133084867,0.6384467300294846,0.6164395373432076,0.5982823904123794,0.6221734144499372,0.6330567677735078,0.6485598917102883,0.6770426970941675,0.7402732640752333,0.8217810498879042,0.8610887705576648,0.8028930612556261,0.7141619325671721,0.627714736936169,0.5381643236843044,0.4459726119967654,0.3596491923969388,0.360848823793409,0.4446319600981935,0.5308142008448752,0.6133380080185408,0.656229623633004,0.6552830561084985,0.6323548510826652,0.6215926924453287,0.6492205999741397,0.6465466040082742,0.6335344744590737,0.6669980852811596,0.6795785497478183,0.6897527857983642,0.7126691562561361,0.7740459032007504,0.8517333664162249,0.9271395371462735,0.9399650848975102,0.8673794449102256,0.776754722036478,0.6859498503438323,0.6002344535363718,0.5242600179718392,0.5566459540401044,0.6391265775833023,0.6804916139278464,0.6855605876099736,0.6690790504213601,0.6469927011682689,0.6630323586019079,0.6521813175997112,0.6146670466516063,0.594069654993658,0.5834248517869697,0.5831924651385975,0.5959876987442422,0.660004340850462,0.7391740502560064,0.8242694865530512,0.9034298124084056,0.905901666898541,0.836539507681287,0.7574819269401806,0.666152187299775,0.5888114616007033,0.5894140642913764,0.610517812622334,0.5992889590560754,HB
0.6133192536313898,0.5991450240455167,0.5985232483663001,0.6422406247804462,0.6936053088917693,0.724647596601609,0.6974136200909165,0.6512461082814345,0.63559679353946,0.6781410080622448,0.719783025403788,0.7145579330962413,0.6758315885408885,0.5839102377312537,0.486585227865568,0.3853693544985839,0.28670687998463795,0.18627854344614225,0.09529520189800644,0.0894220963177852,0.1765022438830801,0.277711771547114,0.3846117468341588,0.48624066991042403,0.5863524747980469,0.6929192449462613,0.7676987298587234,0.7281644710918473,0.6831117726503733,0.6435965606830858,0.6093039587909406,0.5670679448544602,0.5513093646757181,0.5720664186687914,0.6196388148333756,0.6687447034209311,0.6664719087446711,0.6240264758534675,0.5853181132065739,0.598781256190513,0.6501797131709255,0.6942312021541999,0.711326205731365,0.664066374924206,0.5714785338811157,0.4750015464059858,0.37590381602173606,0.2763038491496299,0.17414251923599178,0.08346003233388988,0.08367298150664793,0.17979377349613856,0.2774720935937447,0.3824066575919083,0.4882446390340125,0.585955691375573,0.6903941959289286,0.7586666143713701,0.7137700190113767,0.6574453125159017,0.621496222543017,0.5859177369986726,0.5541033627065788,0.556308789158815,0.5781446933228158,0.6265069798532643,0.6769901296434324,0.7097452807995337,0.6840755223291652,0.6314942465149489,0.5929880036696353,0.6181728446512746,0.6677512248637552,0.6949195323476696,0.6616919452298058,0.5716573325119048,0.4770301231892111,0.37481532829969044,0.2772097503374633,0.1720152738118932,0.07278474161408233,0.0,0.04086870695106981,0.13915650743825303,0.2391901703829482,0.3460262421349054,0.44892943296074295,0.5479164213753589,0.6545450294172896,0.7469212340474543,0.7346928476303174,0.6846132190111991,0.6554476933390743,0.6213684029061448,0.5838605334564999,0.5846915391944356,0.6040106119223645,0.6415383224932598,0.6957733147619467,0.7231644940634996,0.694724066452165,0.6506466858665831,0.6500296371350034,0.6941561745735738,0.7364882009092808,0.739101137615112,0.6737104238165865,0.5805330934820805,0.4804133757289921,0.3826957721843782,0.2797410040562558,0.18168641864486434,0.0835687894830619,0.059108829245061,0.13166515750350283,0.22430184850955692,0.3303032945003477,0.428762682374082,0.5323655850312936,0.6394155202088094,0.7421110376176934,0.8071978281521499,0.7637903204489898,0.7116650153170045,0.6757213095924226,0.6364283551313132,0.5955692554506311,0.571820940572926,0.5872081703813934,0.6324411181455152,0.6861398833338739,0.7041837920200922,0.6635889977363392,0.6305263927841414,0.6547207650487685,0.7016905244949259,0.7339436284152958,0.7459772565162797,0.7752211383223093,0.7742610701897563,0.7435278168480841,0.6946100618111686,0.6850961146023211,0.7271354185371162,0.7496709884576247,0.7246487610975398,0.6736496265289404,0.6234335396051685,0.6114235015912075,0.6453306314028233,0.6878032962861345,0.7232547769577589,0.7630343791448659,0.8335603760086308,0.9221599322880825,1.0,0.9826654379950037,0.8873949103775325,0.7873680131033742,0.6858475595549227,0.5840895565399027,0.5774109102824463,0.6660311995297792,0.7482092500169015,0.7865309436577466,0.7784443168289923,0.7433865155823911,0.6982670507106774,0.7019472549216945,0.7432188661043497,0.7629556486660336,0.7360279719192095,0.6789015044273907,0.6419893947029016,0.6247199086430677,0.6415767205145588,0.67805038092358,0.7137322738511145,0.765721691692558,0.8461739438027385,0.9321063423969957,0.9435954412273198,0.8572131243573247,0.7643976551445419,0.6752041964784548,0.5746158986387251,0.49718358200661483,0.538780891456009,0.6309135525755436,0.7104655151332833,0.7394787519661694,0.7225671132117655,0.6824538064928478,0.6469044819013323,0.6766263833612998,0.7261521065296779,0.7507011513240651,0.7275356863341411,0.6802262070750502,0.6298820036288868,0.6033359360693615,0.6097189725359526,0.6483862370639244,0.6862887773434885,0.7262563839108203,0.8027899997943431,0.892607346313099,0.9709713465749301,0.9567620161293484,0.8651809895202893,0.7652548791711733,0.6591983311415612,0.5839888073911066,0.6347344264654295,0.7178311563846886,0.7580588896943401,0.7525758947473968,0.7183986893744327,0.6629722703370957,0.6384597349524186,0.6768186717134776,0.715432318084364,0.7254915324769597,0.6851358333426081,0.6311979497354625,0.605921191299458,0.6023172943666735,0.63945592573823,0.6779653423690335,0.7154644218300286,0.7612610256364531,0.8373564037061971,0.9275776172550105,0.9800072176922847,0.9142628950078349,0.8170071385111024,0.7132739882478387,0.611276084606875,0.5148522961931619,0.4941539729925386,0.5813611317902376,0.6707299682496788,0.7397832232958899,0.7553064500377742,0.7702001402460401,0.7357401786675744,0.6887991699469875,0.6991066320144959,0.7410387273340007,0.7632240548666176,0.7376485431961077,0.6927693279040841,0.6476588685330409,0.647470717445779,0.6676466697562491,HB
0.524336338725909,0.4761157279595243,0.39354263255477795,0.3111413624118109,0.258057644136632,0.27840154692329167,0.31530861619695516,0.2995131379057572,0.28215652986849804,0.31788637320613633,0.3425885882921911,0.3176885770585316,0.22861606593300499,0.1498480755845355,0.06555846140827937,0.0,0.06473972312968357,0.18131417353111967,0.2959649849538213,0.39287107298242097,0.5044431904310613,0.6278522291829418,0.7483324604176032,0.7336068955871156,0.6273573400561556,0.5243875213055054,0.4562622012815307,0.4453296318971627,0.4704645219959307,0.5089432576223363,0.49283228587642025,0.4122939105111496,0.3238474667030058,0.2522303454715904,0.2586813209305179,0.3163358395119369,0.38065347695643226,0.38046494217291116,0.35388142381343357,0.3339591740739256,0.2340262139808993,0.16501698788558183,0.08193966976076528,0.006736201288140009,0.06416746430256381,0.18135298295563373,0.29716789421571344,0.392398067259224,0.5033786144128296,0.6239378839161516,0.7311764441466972,0.7085051200708783,0.598573836286977,0.5026320573744587,0.448981859783673,0.4584610754462757,0.4969226966941864,0.5384812773779499,0.5050169429106228,0.4122939893424542,0.32136181073557113,0.26198161742750825,0.2827682368405906,0.3386124917237163,0.37596861460037845,0.3822067267968636,0.3688619566602629,0.3195520582383864,0.2670302374057312,0.275971543950738,0.3222841751901502,0.34253501928356744,0.3056181062987884,0.22299272428340444,0.14966220953625164,0.08100512860134135,0.11697698270517298,0.23501051824698127,0.360364840462188,0.47614884541506264,0.5944498138857108,0.7144487321297652,0.8002643957215456,0.7371409320603752,0.6290691863307849,0.525199372072557,0.4679930001320298,0.467892868093025,0.4930544217537154,0.5384049961494695,0.5188784227214867,0.43942221009084603,0.3554388761037983,0.3003134781938246,0.3186327297832401,0.34943650102489743,0.328602299086874,0.2954433636592433,0.3241559115379222,0.3634892904389906,0.37389170001355065,0.3409044738290383,0.24787505772887064,0.1729429119429442,0.0989093841384836,0.10313564454498758,0.2078963266392062,0.3256477189059219,0.44440975311882847,0.563173214020535,0.6819451440052084,0.7970070948881904,0.8207902139140231,0.7157990030595784,0.5966923225461063,0.5003735381676786,0.44930392776281414,0.44404213690751915,0.47123594713765193,0.5107026332181497,0.5041041507761275,0.41846164228631544,0.32670776344133046,0.2650762906658666,0.27659244608688827,0.3240861346057877,0.3382210696144994,0.3070182699943569,0.33068626568290016,0.3830540814957817,0.40115738512750587,0.37776651410596784,0.33488634188597644,0.3669058920610242,0.45298280496245624,0.5393164193057185,0.576327140372626,0.5510461535084024,0.5158504003196915,0.514981579586705,0.588069211073579,0.695515598708011,0.8080146159403685,0.925444715777008,1.0,0.9406099956923399,0.8268568850306162,0.703509229615642,0.5846321451464238,0.4676729021149688,0.33787039894563087,0.2340646827131594,0.24799885302646318,0.3313147030711243,0.4095405765101918,0.43266825511902063,0.4249890496801072,0.38219558256666186,0.3557904579288915,0.3911556194269825,0.4040280687104669,0.3771280250736391,0.3842152464943491,0.4559932481102602,0.5385049661356471,0.6022861649956543,0.5975132973336117,0.5524692043456794,0.5227459771474994,0.5307090502812217,0.6068472123059356,0.7175006918939011,0.83982233798428,0.9422399825287768,0.9499700953067896,0.8532324028158187,0.7399721264848966,0.6137042783706876,0.4827833599943401,0.3661972637123809,0.25311471221819604,0.21237123341542885,0.2757192367388899,0.36554857092426385,0.4058135759995265,0.40204013791207194,0.36214074030724985,0.3310106797639363,0.37022501528669816,0.4176663096914752,0.4278749208814827,0.4273510616710814,0.4100968130061742,0.3641868878996317,0.3360080416367439,0.40691748357791013,0.4942845838959178,0.5750886200637555,0.5929710861294368,0.5529337822989144,0.5188318519585362,0.5298898525248124,0.6192479699401492,0.7270753369960214,0.8380911800999677,0.918709049171345,0.8718980148091187,0.7629689115074272,0.6451803879377094,0.5263900202243188,0.4076126288505364,0.28908707671871214,0.20273731280927043,0.2361042886414606,0.30766877638748147,0.3896244623205396,0.412610919478277,0.44655053889962426,0.44680339003830527,0.3926797083420155,0.33111335664438446,0.3313154075501159,0.41782174440697206,0.5035760973748102,0.5665392171002543,0.564024487184597,0.5246841079265163,0.5070336002627047,0.5561768135107434,0.660526096911894,0.7707294894163836,0.8784498446763802,0.9389276479534603,0.8666799469445841,0.752665332025718,0.6339212557116718,0.5151350702818536,0.3981420867396106,0.2781628189793066,0.16952381407402672,0.17854324971076263,0.26121329390821657,0.3512497815554805,0.39827377762695937,0.39328528080262837,0.3695775462299289,0.3480172157467849,0.3678727731855358,0.36605569026694074,0.33961962426345993,0.3235308676144859,0.40117091191438625,0.4869236994711561,0.5600458476246661,0.5914594574889338,HB
0.7464339497451482,0.735983851110793,0.726358585133609,0.7748943348895574,0.8374939006320476,0.8559525178127765,0.7859815259302052,0.6829657206980573,0.5759773698835748,0.47271837603343125,0.36432191190822794,0.26090830273634036,0.1543159720314884,0.07262428939884402,0.1117148692065193,0.21261896591122387,0.3208509675391402,0.42541611212348895,0.5311047984135076,0.6319771123194393,0.7281613220013234,0.7961239207655912,0.7753911638795037,0.7300990414544906,0.6961346251746177,0.6759737461679509,0.7028667773518609,0.757243158276802,0.7817963162342338,0.7891503450178157,0.7806963232369786,0.7699548180907947,0.812941802233488,0.8483156249631574,0.8627477293169219,0.778832201951551,0.6758648906089029,0.570787733099573,0.4655570845134651,0.36179737798727407,0.25366501150614074,0.145926190534031,0.044647704466458604,0.0,0.08318737167113421,0.19306750877225998,0.2962258051825586,0.40428453233852046,0.5072742872860476,0.6113578364563832,0.7024385340476831,0.7307461127866237,0.6885359384376453,0.6534436694378993,0.6406381687916107,0.6649954609416326,0.7207756874751958,0.7635349298753713,0.7628578938040842,0.751450137074529,0.7408450993478304,0.7763192589900412,0.8296620000728894,0.851765951512274,0.7992579694333943,0.6953074786782982,0.58966431423804,0.484379823497896,0.3787571315631322,0.2811047083827305,0.20288746191258733,0.12386443428178828,0.03643521870716104,0.045441275715262686,0.14722418833116135,0.25816156115789846,0.36237766582056596,0.4682367568218171,0.5705363368163272,0.6707705261464161,0.7536709361396343,0.7641802609858495,0.7280829694458806,0.703617354965073,0.6941698728799361,0.7300480403176057,0.7802426922476475,0.8050953674866657,0.7982468276095787,0.7759007120219299,0.7755570866671604,0.8177030186342362,0.8465499854873246,0.8318948446135197,0.7407082552077049,0.649645956800194,0.547560432476053,0.4388247959323226,0.33555362351398665,0.22645220796005572,0.12337083686395856,0.02307106779783985,0.010380756733578522,0.10066610955434374,0.21145789218427602,0.32284343072087807,0.43003993535067364,0.5335386444710137,0.6332425941279607,0.7246619690089304,0.7601373085848127,0.723710222454159,0.6775434230554216,0.6348258877548536,0.6272462066200308,0.6681120530392695,0.717842076835661,0.7197514994143053,0.715206776333968,0.7111719394341898,0.7361530609140523,0.7950014250874922,0.8297497710871178,0.7902718913423403,0.6862992531297554,0.5831094614137027,0.47811217533771355,0.37230779781900347,0.26615903271907726,0.16072389804670983,0.05654268574299848,0.013312540455863608,0.08790519679136288,0.19085260375128255,0.2985740009848017,0.40996982807791094,0.519141783869659,0.621471853135648,0.6822991802731526,0.6120855414955149,0.5079298527506235,0.46272968490418154,0.5436439074712338,0.6508934986774315,0.7539842768718532,0.861192900816875,0.9554372411824401,0.9756982976865607,0.8999811562455906,0.8451953498228624,0.796338360589232,0.750614634012442,0.7455152416664195,0.755061551347878,0.7592705899797927,0.7123838937851643,0.6660069017412356,0.6807005556133552,0.7248563480348906,0.7708030359987039,0.8085893711497287,0.7900007909774145,0.7154886229487645,0.6134678183572284,0.51013366591253,0.40745479585362454,0.35141907887722557,0.43384937395651946,0.5367323460042379,0.6431993909274663,0.7467913997043418,0.8500361804670455,0.9483206079149542,0.9789889586406173,0.9077354773126496,0.8585986738907976,0.8204598607735887,0.8068984713719058,0.8329188677663246,0.8394042323826294,0.8287523892609763,0.7902130624921977,0.741799795318957,0.7351232813973283,0.7588406064543189,0.7982660798973402,0.8122295267039512,0.7600719088914116,0.6665147899166215,0.5607408204952287,0.4564973184130736,0.3912303635463952,0.4661342634743715,0.5700516736994059,0.6773487571874743,0.7819139024947064,0.882400768490653,0.9612904730185527,0.9744774707422108,0.9030012840060788,0.8628722985667421,0.8117182884684055,0.7796500631660239,0.788891787033285,0.7949760578661507,0.7999633993365007,0.7548131410624526,0.6993258169540673,0.6795719211974836,0.7013389248813058,0.7444656216470866,0.7721177578294711,0.7309209045847582,0.6359773321199536,0.5296333668203179,0.42552095205319196,0.36149039464019106,0.4338429395434866,0.5389233750303815,0.6419813196596542,0.7505447386065607,0.8536687995016625,0.9547639521970641,0.9941090175062346,0.9249927938357017,0.8749415088548083,0.8426265939894715,0.8028551789968361,0.818899350365476,0.8194937282099473,0.8182529385226882,0.7884891568808126,0.7323862109348644,0.7180334961795587,0.7452777101801047,0.7875289602301729,0.8323186479630915,0.8237161088197014,0.7500085921739088,0.6520336798837658,0.5491958646057737,0.46589536754477145,0.47658283740777807,0.5773474821127635,0.6815487021710647,0.7844812184440437,0.8884986683041434,0.984699514413081,1.0,0.9221360782274353,0.8744123512113076,0.8136674520375018,0.7628536560444996,0.7736040809095737,0.783607065433251,HB
0.14382611908681087,0.21752637499702043,0.28694561564113497,0.3630913308470116,0.3689072451781703,0.28761968607909605,0.19813674006829918,0.14085007047795806,0.18736707325331814,0.2558189412086733,0.32977540509799064,0.4437253422037024,0.5670563116541212,0.6489788009558333,0.5773670393534664,0.4818143803913353,0.41895237342310443,0.35852263970512954,0.28451709916273393,0.2274617680180333,0.2575243074899156,0.3251775659335472,0.3083133914857672,0.258758585941115,0.312217571150214,0.37748856124134544,0.32421796371446243,0.2044689767157879,0.08949308033880587,0.05243080583316084,0.15355524908213436,0.2725565921341111,0.397580880987904,0.5232437381673947,0.641366439805922,0.6815942098686956,0.5871811032561258,0.4787344712674162,0.40687270343798887,0.3455334500160321,0.2656518153752605,0.19102099038257392,0.18899722720452217,0.25831242201592186,0.30314859390130544,0.31237677005349074,0.27026776552222254,0.30707587582156104,0.3648236654163932,0.30798103756339135,0.19300629955400916,0.07294679653643876,0.0,0.07774074937989117,0.19812047652451303,0.3193914783400209,0.44506502733230824,0.567651190267304,0.6872258936143771,0.7734205991781844,0.7159069593560323,0.6065266945548915,0.49878438986870544,0.411876308254016,0.36514734235575363,0.30682853238344343,0.22692306890872516,0.13943915351073444,0.11475318588936423,0.1906052187209042,0.26602643281010163,0.29648885873321995,0.276174914933927,0.2898520979315491,0.36196619889307025,0.3880055944276748,0.29300710810474695,0.17324606961539146,0.08822249610295407,0.14340330562599513,0.26398847729857056,0.38920602905499235,0.5086691059209902,0.6281888080357227,0.662605356481454,0.5687486687751657,0.4712007600846102,0.39993669669475085,0.3490612743970103,0.2785729701277324,0.20089964191019472,0.20209971095232993,0.28244541645592025,0.3036040226659422,0.2699699520313117,0.264653878101913,0.32805309169122143,0.33339579155740795,0.23393854721321783,0.12966009372703624,0.14062128582920508,0.25790665247044453,0.383750891706117,0.5095930615269935,0.6295696082251971,0.6618520537656936,0.5647990189821963,0.4637815834920489,0.39267076825767844,0.33110627739111176,0.2533047234236241,0.19702073230757988,0.22773633335787413,0.3085267676707115,0.32415913114425843,0.27385970799861337,0.31354297137208786,0.39544842938437474,0.40450534355816004,0.30596794362235724,0.21231146458493888,0.2538061963117948,0.3744612513074461,0.49343488849651695,0.61228492070198,0.6735676459727675,0.5902983962700274,0.4924258447928318,0.43493957922874893,0.37284183279573524,0.289796841340461,0.24886392490301823,0.280751534076769,0.35437711479907263,0.4318379005422104,0.48476035840612597,0.5637934665905626,0.6733208419081396,0.7896531204748547,0.9074359981547009,0.9999999999999998,0.9483599531295821,0.831581726770313,0.7066269656681388,0.5855893988453196,0.503871621173472,0.46465029757742826,0.39546681404934714,0.3254166426373237,0.3544404453952317,0.36234991794857074,0.29506570493489637,0.23701632373017634,0.28255935045220637,0.35794841168727665,0.4208912815074175,0.4950925509861157,0.6009316182566196,0.7152772347877887,0.8313830969733964,0.9362719034491958,0.9259544762667085,0.8122844210140838,0.6929122189774017,0.5696313584609993,0.45099386749275006,0.41957674080310325,0.3981696221736122,0.332772453498555,0.3068195457041314,0.35420193621134755,0.340268687472026,0.2591416669758846,0.2641184277704778,0.3428589894420133,0.40918934359319525,0.46788174893871304,0.5608337280732076,0.6692120973500371,0.7847954842949831,0.9004463543103414,0.9665990829155222,0.9023454280957017,0.7872513226777851,0.6634598780806029,0.5416911243779738,0.4654934345659303,0.47658037822390775,0.4326802455794949,0.3819016616133919,0.4074384673867246,0.3879737896699762,0.361269731096177,0.27231194422479277,0.21011919787610234,0.26231175791887784,0.3507933557565628,0.42737356000705895,0.4861311816672862,0.5571664114021551,0.6729121850026039,0.7913086425842271,0.8950621425104177,0.9158881285423284,0.8138926645706728,0.6917715338675541,0.571830923017757,0.4464048450463429,0.33547621053526777,0.3604077410663382,0.4427978448143606,0.4308266208035527,0.3663276751806195,0.3706925790513813,0.36795742154521793,0.3076514187029662,0.2390892570797476,0.26323565878607336,0.3476405167199934,0.42204310504918485,0.48501965786594337,0.5716837459923925,0.6834695693427937,0.8039811499940175,0.9191229819164402,0.9604661194297186,0.865524117518788,0.7474855867073675,0.6402685429241115,0.5173426194394015,0.41859891385481807,0.44614297037362616,0.43963657725724503,0.3741240427955703,0.3237946638093361,0.3634917393785315,0.3530218128829825,0.28668437538337455,0.2801765393033504,0.3501893231603992,0.41648095823164577,0.47442474052392547,0.560570915747354,0.6730377020947627,0.7897333202565986,0.9056045469901421,0.9720007241192221,0.8913818045189299,0.7731119302139635,0.6490542197851434,0.5262859531981485,0.46405651387074265,0.4322044870005737,0.36234587421645936,0.2953439880460478,HB
0.0,0.035854777726387,0.07675347702768875,0.11933120737698057,0.16192436117686024,0.2045175149767399,0.24711066877661958,0.2897038225764993,0.33229697637637895,0.37478766443209355,0.4142964136630589,0.4545544760616509,0.4971082734914279,0.5397014272913077,0.5822945810911873,0.624887734891067,0.6674808319379344,0.709830273178093,0.7487045322926873,0.7897114010768003,0.8322921858059955,0.8748853288688192,0.9172807104972548,0.9514667504751799,0.9664034274972538,0.9781846357262869,0.9815170878472681,0.9672743935765867,0.9365859638932073,0.8987407183483673,0.8567609360406566,0.8141997726522926,0.7737782401854316,0.7344241086659521,0.6919506882626131,0.6493575344627336,0.6067643806628539,0.564171226862974,0.5216909724759353,0.49158793840363474,0.5165296775066717,0.5588716178648329,0.6014647716647122,0.64405775367169,0.6863437930778072,0.7250617068975235,0.76628510318142,0.8088637267423093,0.8503169107348132,0.8888972678147528,0.9300067090378168,0.9561597272186565,0.945470623147266,0.9447367421378261,0.942835697045238,0.930993468978837,0.916920706259732,0.8948758392401528,0.866401808373418,0.8369093819904101,0.8237170678390628,0.8475848977845978,0.8800498865117611,0.9095427202287516,0.9402517302525387,0.9669016357829389,0.9876141915689072,0.9920918343237031,0.9870203188523492,0.9850925965417956,0.969531927206773,0.9369471053699533,0.8977277796370036,0.8590183157133334,0.8178886820681762,0.7753050805748303,0.7329364613503837,0.6940122921882641,0.6530725435087559,0.6104937351430278,0.5681494227424153,0.5444183382065227,0.5756989014826962,0.6182141531897033,0.6608045167325041,0.7025168832765225,0.7409873150658504,0.7830262936108286,0.8253136578992468,0.8640359672640795,0.90520594241283,0.9444847161934087,0.9633455754929671,0.9439168887986146,0.9312529227449959,0.9298231976091809,0.9249530230244074,0.9202820904706489,0.922785217276106,0.936246586278425,0.945713705935275,0.9357676671422873,0.9211688625943553,0.8987882451685923,0.8691532261173264,0.8369577001100547,0.8173175614177934,0.8351966374443976,0.867102593262101,0.9018029995260455,0.9338461494952762,0.9634004951126268,0.9855751689257162,0.9947952360644614,0.994294045163886,0.9922654222545799,0.9834782245149853,0.959739764316217,0.9232063190062358,0.8828179303290309,0.8438060407422884,0.8014105136192928,0.7588218988778834,0.7172931474794908,0.678754045165848,0.636598679232123,0.5940060627043644,0.5514129089044849,0.5088197551046049,0.46622660130472526,0.4236334475048457,0.38104085952740857,0.3398254001596549,0.3325414391139894,0.3712991041515306,0.4138847840391283,0.4564779378390085,0.4990710916388886,0.5415102818065145,0.5806944296024383,0.6213134298348324,0.663882388753937,0.706466265440591,0.7476145167004861,0.7863844184429827,0.8286938162941173,0.8712868396688653,0.9138752078706369,0.9549432390824609,0.9761827419326382,0.9613189611113748,0.9497631346014571,0.9472217691236255,0.9562719822688696,0.9557048648735065,0.9426589468512913,0.9212632632031622,0.892454788991816,0.8614656306883962,0.8299500028914886,0.7998433077782026,0.8025597435874211,0.8359415434571484,0.8698439589944363,0.9021741851727872,0.9336837350019389,0.9635027234353511,0.989886205647688,1.0,0.9953207547911633,0.9910305324749087,0.9794428098975894,0.9583419137739875,0.921929013816651,0.8797271771896138,0.8375953603162305,0.7990553282530468,0.7575048310607995,0.7149156605878932,0.6723225067880143,0.6297293529881342,0.5871361991882541,0.5445432959973392,0.5029767744362538,0.4926073569904536,0.5303564987889036,0.5729384812549624,0.6155135165631622,0.6563087568196603,0.6953445788412747,0.7377498105811797,0.7803413934313516,0.8222441967600247,0.8606982417882648,0.9020599796077219,0.9369496816622874,0.9493177553251025,0.9449355062761047,0.9444018073632631,0.9487016752273186,0.9396868503272838,0.9285785205592254,0.9130582602152314,0.892934415132193,0.8680208651095721,0.8384866821716427,0.8306033701301243,0.8563037033620006,0.8854834646439136,0.9181097670431227,0.9483382609466791,0.9707506368235972,0.9864343775263904,0.9981691878876491,0.9995095586216209,0.9972401317187638,0.9797253827332575,0.9478294258142684,0.9089154634593118,0.870245813607126,0.8279737956822996,0.7853808320817037,0.7427987941317621,0.7017012914011032,0.6628998622241669,0.6205694214606298,0.5779763811667753,0.5353832273668951,0.49279007356701626,0.4501969197671362,0.4076037659672561,0.3650106459124115,0.32304414905974527,0.30709107791531115,0.34285653458751114,0.3854239209009605,0.4280168630274435,0.4702725225574313,0.5089470114985022,0.5502428282688447,0.5928283718158889,0.6354214980061956,0.6777987424297245,0.7167418767892938,0.7576538521783417,0.8002319167719796,0.842262084862678,0.8807361315893465,0.9221562875321442,0.951491714218963,0.9424367237167546,0.9362882108597609,0.9330439214293946,0.9257819173366871,0.9190976219327357,HB
0.5832043924694815,0.6357287696343766,0.6119549845482691,0.5146433337156168,0.42698921804017964,0.3343906044989833,0.23267081848865379,0.1360716027538751,0.0405666113177815,0.01684820581748303,0.09676489424810342,0.19701869767899394,0.2995191061010296,0.40203642189409494,0.5036084875774586,0.5948268350622471,0.6917297098507108,0.7884693374402295,0.8673606737283414,0.852919979604705,0.8110668834135307,0.76660878685713,0.7251739797972862,0.7274883014406434,0.7768739418105385,0.8215282544969652,0.830912305525426,0.8145303013868902,0.7934935348121638,0.8205443114319543,0.8636996655255375,0.84221157554366,0.7513638334025051,0.6538244778207928,0.5553572840022355,0.45751164599625793,0.35569291047558327,0.25908338158543154,0.15891147487231283,0.05890926080184622,0.0,0.05812185864998742,0.15892554792852875,0.26144083953364694,0.36395924952275427,0.4664710383381031,0.5675858945966702,0.6637595923197662,0.7651673697424103,0.8539650712742762,0.8506923111377157,0.809577505103522,0.766745224323304,0.7246947733018269,0.7296182176540228,0.7772151157271373,0.8203037152923617,0.8332958347629805,0.8320701074253795,0.8129181172295638,0.8404474676262897,0.8772572278363123,0.8415144574427808,0.7498766521089538,0.6533182661669946,0.5542941303647467,0.4536570517897439,0.3573469404082964,0.25561964777054935,0.15597311251119705,0.06443503325905442,0.050328342200216536,0.13633396081087068,0.23515509831461023,0.3375820237888284,0.43809777801390515,0.5345027748085088,0.6363664039604849,0.7387032056278641,0.8342977255771075,0.8751254565677752,0.8419057026508739,0.7987523698169058,0.7527033048405142,0.738249816611175,0.7765128443918731,0.827241542328344,0.8443472185737729,0.839968934324257,0.8197177385654145,0.8378792653347144,0.8747428336883841,0.8476423125440474,0.757700271461,0.6595533683128075,0.5627229152644796,0.4609549440622501,0.3708730323101904,0.30143622981546336,0.23312552603798486,0.1640265756468362,0.08416790841860311,0.029830716253151035,0.09442497160755392,0.1900383586041159,0.2907437506310525,0.393232088104983,0.49358090249854836,0.5900881653409263,0.6920178146629284,0.7936825702031961,0.8690447362761181,0.851076255891431,0.8100419494520837,0.7660159800668597,0.7265391492497423,0.7372271072246986,0.7900652241415961,0.8287788487571485,0.8337817576415286,0.8158379520543023,0.8021628298846065,0.8387478637491542,0.8570108712685262,0.7938130334552386,0.6968924340242534,0.6005399071885188,0.49961742653151375,0.4034104042517611,0.30244109893293913,0.2005856679868433,0.10421524456059228,0.012377806801530777,0.013325439824210084,0.10218585892612153,0.20287082778324583,0.3052264567218639,0.40326256740022515,0.5017353496888527,0.6041354634020887,0.7049614050002232,0.8007651971897122,0.8697027834696508,0.8386976543960344,0.7978208399835173,0.7545454288802099,0.7309452968480458,0.766925882234505,0.8117370315188129,0.8521021494474365,0.9148435475589972,0.9784338864236476,0.9440820239025621,0.849765876963502,0.7530757148482813,0.651012306742678,0.5517096659557005,0.528574733705167,0.6184306302731889,0.715250561770815,0.8133530365837706,0.9018905053698002,0.9247503637160192,0.8852012992224428,0.8424170244825097,0.8328512627488306,0.8575563752339147,0.8580279192436343,0.8319541835104723,0.7787416469682097,0.7546989561986687,0.7890569577183028,0.832024455492354,0.8758351220626962,0.9411088732477476,0.9910758044559346,0.933747382278744,0.8380687309433567,0.7359543968384218,0.6334381220123945,0.5341350813861409,0.5109996278379153,0.6006713602138748,0.6971028684734432,0.7947632146696034,0.8876885920815475,0.9390144213044823,0.9092516325797112,0.8704553940827543,0.852928395054177,0.8711870210786149,0.8688579608616464,0.8502796005787984,0.7997705503254667,0.7694377062181296,0.7998275173144732,0.8446042327152273,0.8871406328296007,0.9507887339262703,1.0,0.9395838024997306,0.8384715930529246,0.7359643981498073,0.6351655678246347,0.5488335198543105,0.5643501053828835,0.660745539821778,0.7567826272571964,0.8525330092584417,0.9309861356629167,0.924741702792453,0.8860641619295656,0.8458927709748202,0.856954446674831,0.8625368573053224,0.8507970341815062,0.8169414556893183,0.7683682524225831,0.7575699231523193,0.7987617792924974,0.8416767407960456,0.8911826339948395,0.964886179466251,0.9781687724650218,0.8955858728012188,0.794642816748334,0.6962146622176312,0.5996798819387367,0.5562984009864956,0.6320387598260858,0.7321996621718588,0.828198348008009,0.9169130296996019,0.9287928973493681,0.8866168265405118,0.8431140993433422,0.8327740603160364,0.8567540340289937,0.8586903860076035,0.8327009888957811,0.778794721325717,0.7521439398486237,0.7858925034859455,0.8304608833955319,0.8740125283587964,0.939470790480797,0.996722001169653,0.9447854103114087,0.8489592738888537,0.7509445445301538,0.682340282415533,0.7364520620882212,0.8331599445437571,0.9190865509931784,0.9323193052201498,HB
