0,1,2,3,4,5,6,7,8,9,10,11,12,13,14,15,16,17,18,19,20,21,22,23,24,25,26,27,28,29,30,31,32,33,34,35,36,37,38,39,40,41,42,43,44,45,46,47,48,49,50,51,52,53,54,55,56,57,58,59,60,61,62,63,64,65,66,67,68,69,70,71,72,73,74,75,76,77,78,79,80,81,82,83,84,85,86,87,88,89,90,91,92,93,94,95,96,97,98,99,100,101,102,103,104,105,106,107,108,109,110,111,112,113,114,115,116,117,118,119,120,121,122,123,124,125,126,127,128,129,130,131,132,133,134,135,136,137,138,139,140,141,142,143,144,145,146,147,148,149,150,151,152,153,154,155,156,157,158,159,160,161,162,163,164,165,166,167,168,169,170,171,172,173,174,175,176,177,178,179,180,181,182,183,184,185,186,187,188,189,190,191,192,193,194,195,196,197,198,199,200,201,202,203,204,205,206,207,208,209,210,211,212,213,214,215,216,217,218,219,220,221,222,223,224,225,226,227,228,229,230,231,232,233,234,235,236,237,238,239,240,241,242,243,244,245,246,247,248,249,250,251,252,253,254,Target
0.15867733675348306,0.1808214541015286,0.17898233225647442,0.15571540260325623,0.1637129824029948,0.19621970704408553,0.2304538245818989,0.25568825815357776,0.23092219557812899,0.18383108105685741,0.16016451204725612,0.1855948064418571,0.22456480529564693,0.25806025900212815,0.27863643368917623,0.3094488730130649,0.32804468544366183,0.3301049270491734,0.3242147053530844,0.31375549972550343,0.2967445784914988,0.301323828363546,0.32100017811057513,0.32839510058217614,0.3163449497063189,0.2782332685378113,0.2339096083002592,0.18790218536600634,0.14232637364506662,0.0959694494219665,0.04860188679170663,0.008608574952462145,0.006300629266806634,0.04806921885046611,0.09708542954563715,0.14621179136882267,0.1953381531920082,0.24446451501519362,0.2935493250191943,0.340009695731611,0.38556283860768614,0.4345687245639842,0.48369508638716985,0.5328214482103555,0.5819298710591929,0.6290453283512689,0.6740321081703129,0.7229256577591459,0.7720520195823315,0.8211783814055167,0.8703047432287021,0.9194311050518873,0.9683738588345772,1.0,0.9673563508743876,0.9213284235914816,0.8755132253228006,0.826485264716996,0.7789750227206684,0.7342828878598366,0.6854973118147187,0.6367650230962956,0.5921551707843584,0.5445120801424896,0.4960822770495521,0.45173865102150823,0.4061175401260517,0.36239687071187987,0.32127440629339543,0.28708069962598204,0.2662667318127854,0.25424196396221044,0.23860205488700836,0.22081351931264614,0.20298466759010703,0.19303919819280946,0.20330667707006256,0.23085803173315722,0.2618262592039897,0.29008505122895434,0.31206898667414484,0.31749641755947167,0.310499226375903,0.3028242886364907,0.2889429047405281,0.2840591123155485,0.30134119468441334,0.31124771325606093,0.3032360665050329,0.2676941757329726,0.22291397676811664,0.17397556924572255,0.12489402604084654,0.07844547544755087,0.033432345152441645,0.0,0.017886514145786014,0.06201897470390039,0.11096732943742171,0.16007332298123467,0.20712670923874255,0.252164403344027,0.3010715389862122,0.3501979008093976,0.39932426263258325,0.448400005103035,0.49472755896352694,0.5404078869862428,0.5894284721813738,0.638554834004559,0.6876811958277451,0.7368073660221417,0.7855905121916085,0.8302757087894701,0.8777731626721015,0.9199542230712308,0.9037081029420104,0.8558107746786381,0.8111226079601415,0.763606483285098,0.7145806631398905,0.6687592233070889,0.6225780616758736,0.5735132379473931,0.5243868761242079,0.4753153097393663,0.4290533540746373,0.3838324312885184,0.3407818510613094,0.3026093971428421,0.27302373552350434,0.256341988876313,0.24421343901849824,0.22656105394548698,0.20584975996695865,0.1882340872886501,0.18113134625148974,0.19473767553327737,0.22285499998784153,0.25541475459007346,0.28842875128564627,0.3135928687205254,0.3225371810424893,0.3177214898827898,0.3102199804378636,0.30112883477207864,0.2911703002455668,0.3039011160534806,0.318620629762983,0.32032555580434385,0.30817306235179887,0.2677424697688593,0.22356805828443072,0.17624997426308142,0.13182625237558288,0.08376494235386212,0.039367484285863896,0.0017226188695212974,0.019133449251276247,0.06442423126008845,0.10993757198807563,0.15893895817738468,0.20806532000057054,0.25713479430433395,0.30337885274070375,0.3491396448357851,0.39816952954936013,0.4472958913725458,0.49642225319573186,0.5454223602936257,0.5909426019945874,0.6374421707075133,0.6865264627445229,0.7356528245677074,0.7847728176578173,0.832021211134462,0.8717477792935775,0.9185630706528056,0.9433022427511144,0.9077261384516753,0.858732374381384,0.8118413543063934,0.766673212873388,0.7177394253657983,0.6702220691613943,0.6255351379977896,0.5767549842020998,0.5287139540221832,0.4843040529945304,0.4365715167652715,0.39260602845196835,0.3494451505326934,0.30936708129766566,0.2763602304846533,0.26216581059259314,0.25094498739669147,0.2361606614538999,0.21843816991554188,0.20182733502908057,0.20204970429571556,0.22224102623126274,0.2527118322962235,0.2833696169743338,0.31075127479524634,0.3262649780321565,0.32357619970593676,0.3158930498670156,0.30446499676660843,0.2896417820114563,0.289128773734074,0.30438713991937094,0.31270669343126745,0.30025481105929663,0.25874965415007467,0.21260624374958714,0.166424934694691,0.12067754503693184,0.07341005914362109,0.029653791126523332,0.005630524802980652,0.03375006303962058,0.07884927587792256,0.12786157650283037,0.17697100054696047,0.2230680386462015,0.2586520566892486,0.3051744555075748,0.35428466565449446,0.4017537954218473,0.44142043016969024,0.4846476067355987,0.5238699811546745,0.5596258632398978,0.6042935011028503,0.6533655409415444,0.7024919027647303,0.7516182645879146,0.8007436819406761,0.8492689550410946,0.8935932446152868,0.929063488789468,0.9022723891668949,0.8534692479812949,0.80582825530787,0.7612230830821483,0.7124825528559511,0.6633564924007305,0.6142301305775446,0.5651265568683661,0.5181428204585747,0.47306562544141784,0.42586290146379047,0.38128151063849747,0.3373658703154043,0.3021131457769577,HB
0.1094249521853985,0.08984069087528446,0.09095587385506088,0.08747579146045537,0.07567832189327417,0.06836447751899621,0.06737467792545515,0.07913077012264647,0.09792047987320651,0.11324964142530813,0.1225195103335921,0.11838587006936585,0.11224825582893772,0.10940222054421356,0.10352586585136003,0.08076224586685465,0.058744914101907186,0.0408683834346264,0.03890127351138961,0.05153173748767648,0.07038618111052464,0.079820640677426,0.09150973256994854,0.10190264215166556,0.11431263798343205,0.13353788959861768,0.16279567954397933,0.19612932680434225,0.23683777743229006,0.27460091794358066,0.3171701279015311,0.3615738804772659,0.40390703840891673,0.4418250201000844,0.48584821120265853,0.530264435454675,0.5746807467929869,0.6190970581312987,0.6635105204960434,0.7063276909762892,0.7439563492142172,0.787780808830669,0.8321944883442145,0.8752270285147994,0.9127878242160625,0.9564132069978515,0.9947795432616824,0.9999999999999998,0.9666611617245999,0.9225393880808002,0.8824063726765397,0.8425533481308312,0.7982064500070447,0.7537901386687331,0.7093738273304211,0.6649924056655439,0.6243198208108478,0.584995195611836,0.5406904688853966,0.4962741575470848,0.451857846208773,0.40744229257913966,0.3638502220976456,0.3263282049887626,0.28317259642369685,0.23875817642543673,0.19434519775303238,0.1513911103334118,0.11382725614503308,0.07015230867258482,0.03774964897518385,0.0635141625773854,0.10056293348539036,0.11485266563192909,0.10859166839231005,0.09554002099488357,0.08484739054226997,0.08837967784940526,0.08043968256086664,0.06990198113087409,0.0650554752475232,0.056087745160444014,0.05304325906774077,0.034830867479803906,0.025822434867989186,0.024888009530567023,0.04315399933539976,0.061996685912621974,0.07671704486615294,0.08842306300588465,0.09964235184818038,0.10885436350225808,0.1178970209738075,0.11354792731167618,0.09298228416982268,0.06835007596752951,0.04610109309048038,0.03107379425466128,0.029259518610980084,0.039395606995940025,0.04215939359033394,0.041260777170883056,0.047559120128254584,0.06040805630759993,0.07646060079145456,0.11050128192994979,0.1519454537417093,0.1897828309637124,0.23195947978426434,0.2696755630379819,0.313642261454679,0.35733564203876966,0.3948189035198826,0.4379121032750459,0.482323445368094,0.525309834890749,0.5628851725641546,0.6065934376131283,0.6510089814633797,0.6949235708968746,0.732707711818448,0.7752814305165516,0.8192735724916076,0.8570068284663377,0.8865954309998736,0.8749264173216826,0.8346799515548142,0.7903175032696426,0.7497208918879348,0.7108101954030956,0.6777259914535538,0.6399379692466083,0.6064982830284851,0.5690161739061792,0.5352705746034161,0.49809437856575123,0.46413217554369446,0.43159534529454957,0.39146515805074045,0.3471043886987495,0.302688077360437,0.25827176602212587,0.2138554546838134,0.16943914334550225,0.12502283200718978,0.08064400340283084,0.04006695135652283,0.0033800450803032067,0.00871345085965336,0.04716285329634018,0.08107353003032869,0.1031894401661082,0.10741144355901855,0.09620430504168342,0.09862704621404883,0.10375502252133062,0.09216685163615557,0.07536597306726911,0.07840860665941296,0.07361850712049556,0.06368671472838616,0.04778860664330198,0.033823615641835,0.033807304364790625,0.047997085286550556,0.06554849579964239,0.08588648060417281,0.09611953923245764,0.10042406939759618,0.10327726442429563,0.10830101999596065,0.09626974558054013,0.07462334790516878,0.05480284972620253,0.034289123124358944,0.015326075385571292,0.019868415059582256,0.03132445849650711,0.03355980594955099,0.036465149193786184,0.045622443014458725,0.05433738114089692,0.07725372993328361,0.10798098499458542,0.14494170084299096,0.18616053343189165,0.22367406737593765,0.26669307388547914,0.31109353022281083,0.3528635500255881,0.39123612602331037,0.43537349203716413,0.47962310710764267,0.5185522311025517,0.5596674575811873,0.6040556708596452,0.6474804915376351,0.684917680475688,0.7283248959634652,0.7727396387078167,0.8163760657508072,0.8537814209482295,0.896933093925169,0.9339021399282597,0.9321311346157166,0.891610248775369,0.8480902396041021,0.8105973064395038,0.7673493965785803,0.7229347154075423,0.6785184040692303,0.6341026012661877,0.590352083647222,0.552757356677628,0.5098325013522123,0.46541873428589375,0.4210024229475817,0.37658611160927125,0.3322064595778651,0.29161578104265895,0.2522177056200279,0.20790275316424522,0.16348644182593497,0.11907100032433537,0.07555023105470249,0.038069117563381605,0.0,0.011546023198150568,0.04793378954929861,0.08257066181417816,0.10586578934583724,0.10194833972533468,0.10048152337270655,0.10245243003410986,0.10342700258171278,0.08440881682279455,0.08366336123659157,0.08550748367806449,0.07305092489627962,0.05699031654594311,0.04456607963915449,0.04353159378109672,0.046757409055864896,0.06072712973503758,0.08020426300233674,0.09846616087326732,0.1045373895976327,0.10653842026611837,0.1060547321330827,0.10325297018681168,0.09839190375009621,0.07709595948848036,0.05013611286351516,0.031306066351056705,0.02042749668850563,HB
0.3520262727503214,0.39056633259941664,0.42196531414273464,0.45867231001642805,0.5200904964141455,0.5783286050940224,0.6295084829260524,0.69157151341479,0.7531376564091796,0.8029272810469625,0.8504753565757368,0.8575121100819976,0.8161558784284444,0.7545862738244051,0.7008339550935361,0.6454720983101154,0.5829715962382958,0.5204154095382494,0.4580545388336752,0.40560244251448463,0.34890930820934596,0.28638534740745003,0.22382920401989548,0.16167867488974386,0.11021321241662863,0.05238769333078386,0.006787456110793677,0.043765972953774046,0.09477865387380646,0.15678490181537352,0.2128632869745961,0.2598395436963896,0.2946397040405029,0.2985178287425434,0.302903121380397,0.31409246350239295,0.30377753526162987,0.2737834837502291,0.24018218205877684,0.22419482439486016,0.25140138443367244,0.2657705792207876,0.2661259837483039,0.26613093825036804,0.26933295779927,0.2815660341256976,0.2823206602965964,0.2822923060457123,0.2761628932733897,0.2663117775099133,0.2613147825431521,0.26135581900023386,0.2725080988464583,0.2821457869911672,0.2821008785201484,0.26899908470568734,0.2508347876437753,0.24993149398513248,0.2499315372976243,0.2509585221097943,0.27227487879031287,0.31317768256714373,0.35493325723697167,0.39527264226276815,0.42770133159099766,0.46755261560842865,0.5269906781836595,0.5769228829489288,0.6369565103753074,0.6990234634800614,0.749541795225042,0.8079987131314152,0.8443794658886592,0.819323500065547,0.7724037071060259,0.7141096845121462,0.6515611355824737,0.5890049353472744,0.5264507411895463,0.46605262663107494,0.41622576246372756,0.3549745077673241,0.2924186865164282,0.22986272531379104,0.16817737404484,0.11823502965751631,0.05838720694587263,0.0,0.004092715859089324,0.05601318155842838,0.11840444153444674,0.18048207458592147,0.23099601029957384,0.28003074608085,0.305367271204501,0.31457974770503583,0.31748223524337416,0.3299933120019105,0.32106226987175246,0.28549865348341275,0.2537981484710601,0.2550357731219828,0.27957736792607424,0.2823187290693978,0.28234129218124515,0.28753943292724715,0.3000936592737027,0.323159624817412,0.33996726674112443,0.33120931183490177,0.3309050391484396,0.3309072048079966,0.33305558817230585,0.3459938188211509,0.3470990980780533,0.34695876736171494,0.3380378211653028,0.3226123414342976,0.31748605665953944,0.33003400529024285,0.331391640926487,0.34392979170996885,0.3690821168206533,0.41025100010298443,0.4527789647493896,0.4995982744564995,0.5441351655447839,0.5763393008152584,0.6181563786649154,0.6712397730544817,0.7259667548034514,0.7884184069947717,0.8480205020774454,0.8981512319084644,0.9577956269957841,1.0000000000000004,0.9917760531266429,0.9423541779068247,0.8864969155294098,0.8239876164338114,0.7614314161986111,0.6989177870275909,0.642842764243575,0.5897917092888907,0.5274013676029661,0.46484516736776627,0.402385857130648,0.3475767544227786,0.29329656062575404,0.23081525412365655,0.1693684287345567,0.15210710965574537,0.207332131884836,0.2687395884649315,0.31860691310803047,0.3722274831161094,0.4042479881111456,0.4109724534653658,0.39845599696914036,0.39555189019326686,0.3848799618791672,0.3544776001616521,0.3119670375796022,0.27730288791774127,0.27159879067219483,0.2943440530305437,0.3025182453668154,0.31414459133473915,0.3147102001783022,0.3147102868032863,0.3147102868032863,0.3147102868032863,0.31468593284351076,0.30913815242923937,0.3000937116176212,0.3128065870566865,0.32518417584230663,0.33087965466179137,0.33090232625300287,0.3281778212491644,0.3172411470987604,0.3381460707393429,0.36113243963594055,0.3697837749235213,0.38200083633031934,0.4071279135401773,0.45408765002819784,0.4986287925235646,0.5316729771445243,0.56370616980925,0.6109762878328779,0.6712509121566748,0.7331871977971223,0.7833975332862018,0.8426616939187652,0.8972604355299914,0.9464562113363653,0.9572666458151144,0.9210805000779874,0.8601871638221494,0.7976315862040204,0.7359027111117711,0.6858175744039037,0.6261535007221366,0.5636014022568365,0.501045202021638,0.43848900178643824,0.375932801551238,0.3133766013160386,0.25082245764530864,0.19067966455921548,0.16890093283888907,0.2167087812265267,0.2668373457359521,0.3226280913934132,0.35505892693448304,0.36322794795036284,0.36480025110365943,0.3848504521410372,0.3906519084979707,0.36381153808704525,0.3325402395640289,0.3014685146880427,0.28810718573541516,0.31007265339155277,0.3096352749779734,0.29833847383249124,0.2865840891519995,0.28232843341850744,0.2823207821129796,0.282766471351624,0.2944796317380356,0.2985020010305277,0.29851553445813295,0.29851866817286155,0.30104092744876176,0.3158956934268824,0.334580699454456,0.3467887882958274,0.35636237803467097,0.37737411699782797,0.379487443327863,0.37912719573552867,0.3681939389922255,0.3687419963724876,0.3982114443179956,0.4438368090527427,0.4869258006345869,0.5150193300773243,0.5592978393992278,0.6210754974008905,0.6816976105917107,0.7312626888380631,0.7925447917670931,0.8488570633082939,HB
0.1544016891594473,0.16935712898571564,0.21264974900009248,0.25896466977493926,0.3098223174316357,0.338145819002416,0.32240972608211216,0.26764451399145406,0.22938269239017295,0.21287932210130034,0.1814068973703029,0.16808545969857835,0.20572615039423736,0.253432437125638,0.2860050522407054,0.2658831211476964,0.2057298955034148,0.13483435815569944,0.0780604244147014,0.04298134350518623,0.06777369320338122,0.12851708424419295,0.19425180649125018,0.26268126344077025,0.3410360936652048,0.4114731055503431,0.48938064733715736,0.5718399326622694,0.6524001206403791,0.7214876990851669,0.8008360676269097,0.8700639516168085,0.9448246921110761,0.9903618890435828,0.9699279864157786,0.9058098182868211,0.8394006796345792,0.7701198795417028,0.6954985239480207,0.6176820770620943,0.5472839919952497,0.4718398173623628,0.40023104284751954,0.337361745318316,0.2897395542164012,0.23328300045120853,0.1750017565780686,0.1296428304186077,0.14559148616741746,0.19675281816404455,0.24841440980607965,0.30291124805357095,0.3474233900934647,0.353435591164021,0.30458958749828335,0.24117673578650622,0.18617721684419708,0.13784155188031555,0.09304892949015331,0.03885647605189435,0.02224077650881684,0.0706987219014743,0.11139573565645611,0.13728759077744002,0.16318191184207986,0.2201457551652357,0.2976653648058045,0.3669845206108664,0.4440074289093259,0.5141071576565555,0.5958999582597366,0.6783651801196142,0.7560206970474899,0.8140786611396482,0.8745351511647033,0.943730354789662,1.0,0.9898282069587889,0.9241120089044563,0.8541052918574139,0.784845498615121,0.7094566045396871,0.6396676991801433,0.5592110676205735,0.4897502803587339,0.4109968504116175,0.34094113756764033,0.2686519826784042,0.2218162633642189,0.2120636741576507,0.22150855843339023,0.24542758496916095,0.2732560548825229,0.2942400519719497,0.31175773835136233,0.3245018240389741,0.30425496134208485,0.2568935966902246,0.20498633333578997,0.14320712804647773,0.0759299685088064,0.04535301543794379,0.07587664035825803,0.11525125475809084,0.13462145979506168,0.16233909020869763,0.21340654282260418,0.2638739345391392,0.3292286871000454,0.40030907162152385,0.47263437992763047,0.540934202377076,0.6093419727456459,0.6879711801063513,0.7580334973947074,0.8328845568088998,0.8705713574741991,0.8375766715922679,0.7642128156524395,0.6826878265203211,0.6129961278266589,0.5346136850091465,0.4640724805579195,0.3914848093645724,0.3227477996299184,0.2548425630233062,0.19529534523341807,0.18301501231732642,0.22267831001565908,0.25951454948125985,0.26500808285035715,0.22820856695030534,0.1993016363823905,0.21467486952140602,0.1984537911692681,0.15750141682297647,0.10603846450956356,0.04889352965701166,0.0,0.016102242807225498,0.060924301271892745,0.07786174520313249,0.07776929880378258,0.11637793937632734,0.16902800920018768,0.2128212071168183,0.25170949960983746,0.30639361190993997,0.3688958004286116,0.4412028470484266,0.5108466497158188,0.5913703166760156,0.6608916183731246,0.7382593750813284,0.7925731542385663,0.7740619011924728,0.7121860942145539,0.6407720739934528,0.5701001336082245,0.5006478210940957,0.43138836542550063,0.361636932010339,0.2899375205889103,0.2600470701321118,0.30122424938756387,0.356402271624086,0.4035045708132916,0.38757621626626815,0.3432872146603527,0.30082413460651836,0.2790412076955153,0.2505687126469591,0.26454619746484065,0.29484249533149676,0.32788037308760876,0.34113441401319644,0.3238518552042411,0.292680641669278,0.24343173125395712,0.17987814789802226,0.12476070811805773,0.09665363867131482,0.13963714045517195,0.17899000721271685,0.21530245723664354,0.2371632187872703,0.2206846962015674,0.22230913244031836,0.28939698002853564,0.35941658432940127,0.43537634861059304,0.5069202013462752,0.5890261526238452,0.6712887621385115,0.7439606805335401,0.8116503371307364,0.8345495580135047,0.7874226732327942,0.7245853763218104,0.6520282137427205,0.5822956373542478,0.5133362997112823,0.4499750122988906,0.3856268400853411,0.3254548625444791,0.28986048457016933,0.28096763035879757,0.24693277029482097,0.2013366106390957,0.19460579572724823,0.24957797301278406,0.291640044341154,0.31881529157376765,0.2896866380618701,0.2341607086430728,0.17610998124598698,0.1282175449712617,0.10358227099983086,0.07703230553420104,0.06332448374112642,0.11344625732211178,0.15376392078434575,0.170456608939467,0.1944347417910306,0.25597599093338186,0.323062884647876,0.3948217669014542,0.468873975510232,0.5512211235117763,0.6336988906274135,0.7131431085760487,0.7822454878955654,0.849061947567133,0.8683671790554683,0.8187493741844252,0.7504680314909131,0.6720863326836461,0.6015198630664975,0.5263823630315043,0.4574255521414421,0.38661688810531736,0.3122708585531351,0.25878043959490515,0.25384472188846186,0.23030020364389348,0.23235407754926163,0.23632769605807713,0.21464953194834457,0.2059225276328549,0.20989437131559407,0.2359968872851228,0.25305434362610457,0.2378179372733853,0.19466302214977027,0.1578859967635684,HB
0.4090397844639524,0.40410748390015216,0.4066641073726438,0.44611552628480355,0.5025077151921606,0.5073274532663032,0.4622002060399262,0.43002513610243565,0.3969426542001866,0.3227535217175821,0.23699045532346474,0.1505000976002311,0.05937819607271955,0.0033247769537410043,0.035854551118179145,0.12931067927885165,0.22325741494976814,0.31036535680241784,0.4123394674660581,0.5135829725544938,0.598207171293716,0.6935263803567477,0.7767271465670302,0.8633630458541517,0.9296494884638968,0.8817786256842726,0.7908553917144565,0.7040316627202601,0.6126299246523801,0.5304843423592436,0.45930452107110353,0.4076418031583535,0.3639369915855277,0.3564647201941371,0.3726048816489622,0.3832532345850126,0.4035536421807824,0.42912002057710374,0.4623699355620876,0.47597871099060374,0.4643819932510178,0.4446548403681283,0.42425927747966075,0.40479064668371345,0.3872857476249787,0.40242502576183536,0.4624842418520365,0.5147474492586497,0.4996641648603437,0.45822168097407223,0.43581316338400455,0.38879105341731224,0.29623603438014445,0.19506406706787782,0.1115058640391493,0.035749986544973744,0.008583393822532148,0.06166102231899595,0.1486541117219109,0.25071054715596697,0.34447402347273703,0.4317620222727281,0.5329519355523464,0.6182116508575466,0.7143534999655503,0.8068243824773105,0.8950984698412703,0.9765315913773258,0.9441942814004229,0.8515463437858952,0.7649389506301296,0.6653395123494197,0.5818564159972994,0.4905498899616303,0.420729408358155,0.37606538397934575,0.35597320570927415,0.33737225590720277,0.34327720074023604,0.3592253690558165,0.388399185298407,0.42912556069719976,0.46264131122651975,0.4704536054068611,0.45027763152822287,0.4267253653237808,0.40527707485150755,0.3879180708181167,0.38048933523925754,0.40137378644132893,0.45316619795736557,0.5098334735271117,0.5092136609636047,0.47469117332050637,0.4383785990536717,0.39228495116575246,0.3020944354306905,0.216368485550833,0.11924805737206468,0.041678781886107075,0.0,0.04679085190005372,0.1284596434390961,0.22773326214850442,0.329652164140819,0.41660352461360484,0.5107742634747154,0.6127672191251938,0.7010185667386017,0.7937936887106756,0.8960398292114502,0.9789166143444539,0.9417792709228583,0.8429379718994103,0.7553151628973303,0.6626800630316185,0.5781999767590835,0.5041139242662473,0.44590742404401285,0.4054578561474247,0.37045499737767695,0.3579584105803839,0.36768038317772334,0.3732520788234046,0.41838659987407967,0.46078610431155287,0.5044826186935913,0.5411806820853196,0.5276370335106626,0.48827350426990845,0.46130714895548053,0.45155201944326295,0.4345775864631589,0.4282951328460789,0.4429226612736623,0.4905767008836306,0.5305879884887044,0.5198855392890476,0.4715161006819848,0.44992518768250367,0.4070603532439381,0.3134669117820996,0.22963818795826718,0.13405589660450223,0.05503146771659928,0.032620675795548504,0.10238846415458802,0.18639543785029522,0.2829869864438983,0.3853307891156832,0.4848474396933051,0.5683423457747518,0.6683384737790159,0.7686423583195015,0.851895110008067,0.9347925971342685,0.9071143868791078,0.8174791400660202,0.7248838728413145,0.639068171488828,0.5569857169001997,0.48484669550291937,0.4239999375809993,0.38160330337396786,0.3800123609158188,0.3854950192966111,0.41795073090213686,0.4538059637195766,0.4910538391894703,0.5236141280363413,0.560963938218999,0.5450806614994415,0.500246641525222,0.46850927471500414,0.4521034654373608,0.43310952558131666,0.41135932375112105,0.43756624508147013,0.4600029195940398,0.5167766804113869,0.5641263088460513,0.5324836734366998,0.49701282497361055,0.47037655213092533,0.41076709959987046,0.31963519342703783,0.2330706451243656,0.1474079822564489,0.06956705954814923,0.05701335566990906,0.12164538453534623,0.20641782917352547,0.3080897058573018,0.4103060863542116,0.5007447139185071,0.5912474105888887,0.6933581808754776,0.7851597484209205,0.8740534470406209,0.9622644184910061,0.9999999999999996,0.9319316871048238,0.8345218483871233,0.7322031151203707,0.6371385054747649,0.5524038294726363,0.4748343051654138,0.419617463827886,0.38623564210657335,0.3800141877948464,0.3810273688493817,0.3986482857728242,0.415336987298943,0.46504066362109464,0.5143837565588236,0.5345521424473119,0.5106795274205682,0.47263269976187994,0.44063549227569965,0.41565052113090317,0.4145706154243123,0.3899289161758053,0.38727655247751924,0.42133972298384403,0.47082497370340226,0.5152480442617375,0.5035359463798801,0.4633218282228966,0.4294742057825158,0.3886096818780911,0.3038503287153471,0.2133036744929564,0.12437483782192826,0.04641724809450665,0.02766831986335916,0.08870291751759796,0.18873189716634808,0.29109230704338573,0.3934531844883691,0.49438011278932636,0.5725532820044701,0.6342236735976852,0.7295998182497567,0.8142306353501687,0.9008152084545595,0.9255912599121099,0.8535578832572672,0.7560609072999367,0.671095026474902,0.578738829746396,0.5002687362463698,0.42945730337062304,0.3698130098547985,0.34158204688888416,0.331918051411924,HB
0.7703743879770188,0.7867706909467347,0.742842496495435,0.6803820671666112,0.6103068556225715,0.5393752249726704,0.47712392214349375,0.4153830548916426,0.348611738125864,0.2946125678592768,0.25107700112186127,0.2149499062892426,0.2342274622188567,0.2678670430494279,0.28212366664070077,0.26773743045814147,0.252404292045866,0.22010541785781212,0.1834541354151651,0.19575844634612594,0.2156115036500088,0.2211049944672827,0.204677472040939,0.19740466352356956,0.20389035971676117,0.1976120059483386,0.22486884910573224,0.23433685133335214,0.20037786223008203,0.16480490421822402,0.12312329727085514,0.078074025764574,0.04639666832554701,0.051378938750585856,0.028979546590318872,0.0,0.045552059589499816,0.09390492952272744,0.1301223350218237,0.1571437552089865,0.20268338270842046,0.2632512166278529,0.33008617084419,0.3947546241504183,0.4669990692372381,0.5293998107431928,0.6033174802131662,0.6679685278262584,0.7374729934940119,0.8127618324380936,0.8870828150829762,0.9360693806642693,0.9252050956594791,0.8679393332030987,0.8033794662923905,0.7346752680661135,0.6657577511685782,0.6006360243545958,0.5317947245921548,0.46674299253520646,0.3948106819070021,0.33241006737926915,0.2675715084684329,0.20912346351987665,0.1828119768506613,0.21270762150345268,0.2182805372065202,0.19096417433338475,0.18964888979247263,0.21326863655854034,0.22341761783701708,0.2373584286488888,0.22123484382911762,0.21792656427610968,0.21337372459837267,0.17473947011115554,0.1467812821407244,0.14871774878033994,0.15802026806470648,0.1758740829449601,0.18239918221482254,0.1650764420867823,0.20646893048305248,0.26954612900748653,0.33668186799549904,0.39957597844126225,0.4706134606899153,0.533464814607258,0.6065644207954493,0.6688227080788329,0.7416934523137599,0.8089157577754782,0.875745595914867,0.9488010450533255,1.0,0.9975478146643177,0.9438133605853216,0.8809139553590759,0.8062380567867331,0.7312376411016634,0.6664824192666381,0.5970455241508468,0.5254792149790397,0.4625105753357177,0.3915562106172161,0.32869302591104255,0.2614770023845918,0.22196526779377157,0.1908725681147745,0.15969043283107753,0.18664124557395878,0.20442290078303182,0.2101942028848489,0.23712406715435863,0.2809719665512369,0.286477550568069,0.25579983272876783,0.20208727002324167,0.14591842603363547,0.09459444908162418,0.05088379811082255,0.05970474909300716,0.09774366260098555,0.13973395975906078,0.1702340497401731,0.20430681880144475,0.24524399067009028,0.28015948236455657,0.3063410902475918,0.3552296710475269,0.41288350216476477,0.47325748401981294,0.5404436127260448,0.603640724787657,0.6783214723057691,0.7507609541191425,0.7884236422466779,0.7674135597067759,0.7053216050683981,0.6416016468093519,0.5748827080635719,0.5093348672635529,0.4471950312318791,0.37748909224196847,0.3158684108709098,0.28025839707465616,0.31648609578507303,0.3573487542899345,0.36449175167553793,0.3465870569309111,0.3255112177968762,0.2746793815612434,0.2245287099277773,0.19504265040019098,0.21131862736920448,0.23556675345960842,0.24905011897384632,0.2786261975858082,0.3065098068976124,0.3184214321488419,0.29645243752351513,0.2998054666698753,0.305481986443493,0.28922814604511826,0.24154870529795414,0.19183655763769236,0.14950145016419647,0.175385520837938,0.21206609596907455,0.2294452229787467,0.1987234814723462,0.15049615244630843,0.12504984011230125,0.14788167580269196,0.1804300481693586,0.23803668719500104,0.30473567638037746,0.3653463258947962,0.43029881767414846,0.50414444595557,0.5664535855625381,0.6388544569743622,0.7031563407748895,0.7719800837340909,0.8342639717803522,0.8997071237320982,0.9194477996527826,0.8804509931806659,0.8169149303723033,0.7545091704568416,0.6847648156953925,0.6224842629152718,0.5484352557123273,0.47357001081097216,0.40973390644140206,0.3426669856454252,0.2822317346046548,0.2333908705353802,0.24193216500460446,0.25498229474976597,0.24986211638476918,0.21972744684125445,0.2116794730644438,0.23177439554550938,0.2457014184796691,0.2259909555444941,0.20382572402966126,0.17910462816147676,0.14962327182156976,0.13208554303708864,0.1270454352737631,0.13334326717603284,0.10166446368337523,0.10112476603053144,0.10024421867213507,0.14299807248885532,0.2114774974691831,0.2759687007450462,0.3499651662048242,0.4124675908331219,0.48221757966190193,0.5445373675596552,0.6161182415042439,0.6784235290986924,0.7524642184995605,0.8276598411673692,0.8908399850765094,0.8988865694035346,0.8509598844172075,0.7976062805573756,0.7289963082317539,0.6667089050685413,0.5951358592470242,0.5328027713442025,0.46125320989190133,0.3990619852793422,0.3356166370122846,0.2705064563502102,0.2503151313013028,0.2379777519334274,0.19004827716016282,0.1854826565091794,0.20692163605639768,0.24053990919497892,0.2729515861863674,0.2938116656810603,0.3043312027291778,0.2914261808662255,0.2653987389998296,0.22070166347076103,0.1667681169318591,0.11767902123538132,0.09396585252757017,0.12145143011517545,0.15064160924608228,HB
0.3152964410670518,0.3117364418662403,0.28800326649078345,0.26343779747764184,0.23314391181787153,0.22520578161670013,0.22515997099479046,0.22521372938465234,0.232347906413358,0.23216336173373708,0.22750883349680162,0.2393337559606441,0.24018400339409007,0.24130031668330076,0.255708147922022,0.26488304456045064,0.26857895758402694,0.25794807174388623,0.25477116401435307,0.24422863079897628,0.24003057130724725,0.2307623666836509,0.22519055006369415,0.22509136630814197,0.21742061622288533,0.19722672476163972,0.1951134590433634,0.19511436939052906,0.19844241845872546,0.23589702989104078,0.2804027774151807,0.3289882738045198,0.3779571735321112,0.43404623270295417,0.4793819841939575,0.5332240049724533,0.5900142933291486,0.6468102133484082,0.7017543617223221,0.7465153365434829,0.8021778157172492,0.8561076265797376,0.8990936068264737,0.9272738561785112,0.906644345163905,0.8603347884153933,0.8038323783736359,0.7534749145334789,0.7050855786644781,0.6485110688224531,0.5995101055071355,0.5497803798285075,0.4930340406747513,0.4362524380842503,0.3840053688930123,0.33736248769094734,0.2808676434642514,0.22407149159351247,0.16947908619749885,0.14617554749913353,0.1650040454293129,0.17933389310705383,0.18939500379306873,0.21207115165182877,0.24062174885903476,0.2519409020236436,0.23807103459176737,0.21130600365591334,0.1789419898054403,0.15077446781790904,0.1291343606903519,0.12012741795966253,0.12369331537522399,0.14451318154132187,0.1506156071577398,0.16370049364600225,0.17658393507841952,0.1660666344456323,0.15777126164680322,0.14990951576240574,0.13808173866810813,0.11901053857907762,0.1057721203586599,0.09083851041358537,0.06924226671131395,0.05021557393090914,0.028602433240132452,0.014796066182698908,0.006204827942860813,0.011338777782972986,0.000697385366640102,0.0,0.009258084990020787,0.015200401577036615,0.03020317276666784,0.047964143446103336,0.07614645616573679,0.11905800979695202,0.1751037621325615,0.22825767611422298,0.27420582231530544,0.3297906573502951,0.3749786289502679,0.42905439263379286,0.4855901625389878,0.5310629260037212,0.5617868423149273,0.611202829342191,0.6679201880258541,0.7182069822441903,0.7666622269575605,0.8233260029160845,0.8760508589946108,0.9222984912060133,0.9714508062806773,0.9872016883320063,0.957536823997652,0.9029295088893989,0.8541955711691767,0.804195269342689,0.747445177346493,0.6906475716974638,0.63439387484113,0.5885094683443968,0.5352738989452366,0.47848111090219003,0.4216834976290884,0.36536681994265985,0.3192542945955088,0.26630929985191765,0.20951851006014222,0.1546984968577827,0.11275910764303676,0.10541042211293439,0.12782736938747918,0.14409547502734377,0.16768412121711185,0.20111987004594,0.2354281686124926,0.26235780094770345,0.26801519951521735,0.24412903023133925,0.2172379118303498,0.18810086606676046,0.16367336239987829,0.15104372196451799,0.15003816355682353,0.14903323169233795,0.13864252491569173,0.14890768035583557,0.16042607629560468,0.16504641106618,0.1650628520959545,0.16511307839881306,0.172101440734028,0.17990584723771796,0.17227682255136312,0.15135003013999926,0.131912519717166,0.10680704420133091,0.09133765280852302,0.09176209136374824,0.10381142209355465,0.10615485951234183,0.11803164614592143,0.12531192225353704,0.13224183092986808,0.12108684021868843,0.13160604917035368,0.14803431276788004,0.16594934158526664,0.20790519351123127,0.254260172228542,0.30333310032756744,0.3546295467299334,0.40201408647673675,0.4585781579658339,0.5085943557562773,0.5573146637905921,0.6139934743102717,0.6692528281300558,0.7140461635594786,0.769363851092772,0.8254842596073959,0.8706896712975194,0.9247334807442025,0.9778913016439215,1.0,0.9768055941017586,0.9299309143682613,0.8732366958259212,0.8164492528064273,0.7631297161685837,0.7174581258250785,0.6610702321335,0.6042726293816192,0.5475440174839092,0.4974204330445873,0.44880962237973065,0.3921062321711184,0.335319238415392,0.28208219927344347,0.23633589424850987,0.17994150451348823,0.12694044248335912,0.12543749379858804,0.14723467046276184,0.14167426100653513,0.15772263436468137,0.18603791980561235,0.2144154385520709,0.2374340875321428,0.23766297454472252,0.21526339789023474,0.1868930444378889,0.15962630723862103,0.14405723496094636,0.13516894024543902,0.13501740544255947,0.13755282559647242,0.1428406406436884,0.14263732444676291,0.1413550710883693,0.14951066970603222,0.15234790747590932,0.1642197736654878,0.16506237641918187,0.1650618846914913,0.16359089064744836,0.14496408402838812,0.12932056273288994,0.11811873742434598,0.10566627347215096,0.09467646654250528,0.10212065626607503,0.09552639043197475,0.093363122203451,0.10293279354104268,0.0920746460712154,0.10193441462322061,0.10525964379173747,0.11665753653092326,0.14578721844254794,0.19084881824221922,0.2354320782413537,0.2898817430841927,0.3348340013476858,0.38961910752382334,0.44195407834043676,0.4885502156504762,0.5449974490424045,0.5992790474039538,0.6443422260391785,0.7003643203195047,0.7514333656402408,HB
0.42219786068153864,0.4592719573740589,0.4922829667304076,0.5409804472521307,0.5711436373862053,0.5709174241673134,0.5382515978652478,0.5028410927609079,0.46193234449648246,0.4305063953802528,0.4024593209070799,0.3835205687375116,0.36598078051962135,0.3644138959641823,0.36409865623129534,0.34719640892146675,0.3235065249105564,0.34847504140348695,0.3968184586762096,0.4444596629240385,0.4719228964860478,0.4603118427882138,0.4454830881649605,0.43005515907559344,0.42551886140505557,0.4004846542002283,0.34852169930325383,0.28358721002328346,0.2070690176983061,0.12507741416046914,0.05071581483900722,0.008973937494828554,0.02190977749460865,0.07551871295774815,0.14067093134394248,0.21677833960336335,0.2986198534067426,0.3685711696506573,0.44129150523469285,0.5232677675051409,0.6053066922311592,0.6873456169571779,0.7692521529478484,0.8407492912700398,0.9118908804552794,0.9919487513337466,1.0000000000000004,0.9316315295578623,0.8618903848808386,0.7926072912905653,0.7198797545281779,0.653109880739478,0.5772926763399719,0.5094660225666554,0.4552099772167195,0.4279183322043245,0.41016045369678267,0.40772715528957937,0.4077788602233432,0.4161894091225471,0.43219860815436295,0.45658039416338747,0.5045001100850492,0.5534149099892125,0.5755061921438789,0.5491999824146285,0.5143279070278934,0.48040768569641523,0.4417450807283423,0.41072657310822525,0.3885894318798684,0.4050251115181096,0.4482158357022574,0.4510368189164402,0.450968993614127,0.43961760618377177,0.4024306198715393,0.3880162033806869,0.42265163245713344,0.4709530655691818,0.5247531392932192,0.5487901292288422,0.5243970653961019,0.49916284617389506,0.4822596798192036,0.4540085218838801,0.4475569502614478,0.4107856711460727,0.3504766587539869,0.27027562033925934,0.19216192307083801,0.12695354972116268,0.05862488809070365,0.020598765583017986,0.03158096200655036,0.07323144398617565,0.13430182854809525,0.21396739684281618,0.29584358056855775,0.36653420302382234,0.4384996540648669,0.5204651955424509,0.6025041202684687,0.6845430449944869,0.7664758801096632,0.8386198760132428,0.8880829972607049,0.8489656904686189,0.778742145048525,0.7083216543046662,0.6265957558662061,0.5564481827725603,0.4897651933849674,0.4428225772836085,0.411115764534169,0.4077158694242824,0.40170955411632825,0.3936907169605881,0.4096067636813929,0.4289585410703216,0.45257561065438345,0.4939660661978351,0.5404053636821948,0.5739994870791301,0.5619613544094602,0.5349449812616731,0.4982051496898974,0.46391458789008855,0.4230124514310232,0.3826235521688779,0.3528948379873418,0.3458069066904961,0.3627533453891396,0.3643848457239307,0.35689268204392777,0.3204806816806074,0.30777039573210807,0.3400293802746286,0.3843073404665809,0.43477812724687004,0.44879227306543923,0.4270277181324822,0.40471331312780556,0.38713143243133485,0.385985941981704,0.3728074440633793,0.3143721466631737,0.23307409312797622,0.15115365311804752,0.0808226510065615,0.021276209344978536,0.0,0.03874952140255328,0.10767538859358661,0.17255040908035602,0.25116745724051537,0.3332023903180992,0.41487023946737533,0.48277808021447477,0.5576944435599387,0.6397018935914462,0.7217407829830003,0.8033922368140001,0.8494228625714286,0.7980625595630246,0.7284082343645277,0.663470540134719,0.5847734645163452,0.5143154209100431,0.4529520319959892,0.40718565330993073,0.38706765582524616,0.38548570483421196,0.37277059802468093,0.3847674987126908,0.3975801021071548,0.4279299882347738,0.46573151819896497,0.5012364480254754,0.5482834386770596,0.5772069518007181,0.5923592267516997,0.5581087864428151,0.5258021323219984,0.4864509708875042,0.44644640699017124,0.4228104278725886,0.4060461569361675,0.38837581070627003,0.3866503398084662,0.40163152071560004,0.4052305074373077,0.37686030969637985,0.37195452963371745,0.4147814509419452,0.4626053916795674,0.4933056030459464,0.4835709561372581,0.4683511544196186,0.45088820974190114,0.4331648412510667,0.42662510879919413,0.3814472678037397,0.31585375095320245,0.23460276042999872,0.15265388236854394,0.0823463342312376,0.03267040572335711,0.03187432106868293,0.08610040255361806,0.15127158097416604,0.23166710276345182,0.2975804990741602,0.3749924692122719,0.45702515747791983,0.5390640822039399,0.6209395374111044,0.6915629502107903,0.7635970271193817,0.8455635411359999,0.9273046993892806,0.9740286979207835,0.9229749251712471,0.8550396594712377,0.7816453735374864,0.7155422745549558,0.6386718971563154,0.560557812815524,0.5027812160294576,0.4505937539290126,0.42991855888909747,0.4293816684171263,0.42938160675502424,0.42942339234062654,0.43856543202357745,0.4713790633652608,0.5070251869124616,0.5566233077666549,0.5990754110900989,0.6169169542110344,0.5872967096536761,0.5621813692684241,0.5219951153183384,0.4833470514944116,0.4612699810188645,0.4358845861711105,0.4294039270350525,0.4293815651850674,0.4288358801123797,0.4075489788009854,0.3674156775245332,0.34601603277956805,0.3823135323704885,0.4342001640655391,0.47337953742441696,HB
0.004367109135402725,0.04688803118829421,0.05961591151518464,0.0328764625436857,0.05461924477226332,0.019570946761391816,0.0,0.024426303090270496,0.07420787499638593,0.12915162320850215,0.1960595957881528,0.2607971664332518,0.3333303049910159,0.40665141131807103,0.4718552979188584,0.5434236628558817,0.6175127925182224,0.6898018246410895,0.7546884092923694,0.8276047099173416,0.90146300474289,0.9552733187097158,0.9178737714982674,0.8534630213085388,0.7820428844277665,0.7161818445816943,0.6458223099953215,0.5786539276877971,0.5117498050738851,0.44738803332390353,0.3830608819871404,0.322669295374975,0.2845612167607974,0.2577540951067032,0.22090544670479795,0.18043791710151513,0.13509921694135363,0.08638056165591546,0.045545384258280475,0.029478762509348,0.054459897592722184,0.10173174579835176,0.15130840384906086,0.20235800898484513,0.24702301062653897,0.2715696624585202,0.2804638826945711,0.2750294482723792,0.24907794304854236,0.27039289920095566,0.30642814359063486,0.30707524299160704,0.2992105932603675,0.2664236847693555,0.21200230161382305,0.15125272146773172,0.08480944459830919,0.02544232118953449,0.035944590954165134,0.10056727365636431,0.17031833994658196,0.2367651060803344,0.3105106787202452,0.3800636243579072,0.4468056097668416,0.5206465096895776,0.5945675170518421,0.6619237708760208,0.7308040694887483,0.8048342569488491,0.8777938965919077,0.9425499268912911,1.0000000000000002,0.9645285074002292,0.90012945576789,0.828286768363238,0.7612120981693689,0.6921251466452325,0.6237712105323616,0.5663358979726876,0.5060185701940292,0.43649833673829197,0.37292732963433184,0.31773721469879157,0.28068176213714224,0.25082989688683366,0.21937966948330123,0.1752450691802463,0.128834395925439,0.08126720722139691,0.03926064606779733,0.025867831761370086,0.055683501644953726,0.10387153522924364,0.15327074527455053,0.20219364112698313,0.24987566190328647,0.28856531763929794,0.300447406104823,0.2752931329957984,0.2628268652539629,0.29602769664430184,0.32018544018980033,0.31567959190575423,0.3077949584466959,0.2678255029754335,0.20508815832059746,0.13845123557707106,0.07386374363898529,0.04127338394702629,0.0803108163029238,0.15170453808163287,0.2168041352988188,0.28856638602398377,0.3616693777816542,0.42664200763892546,0.49865138370732764,0.5726732595541961,0.6414352893341075,0.7088845709231693,0.7828345105081767,0.8562991433423572,0.9197458227338176,0.9324485841950454,0.8741405568802352,0.8021978060031125,0.7353376607930169,0.6659222657393118,0.5918833447647758,0.5203615259528276,0.4558723124006663,0.3930793299140387,0.33907712651767086,0.29817419749234175,0.27294372712261494,0.2374704293588803,0.197429523397205,0.1561403362556577,0.11263880789242586,0.07373844884122316,0.06604798800077716,0.09675745100266786,0.14531611567082559,0.19657696498234123,0.24510774393164314,0.2790187870894245,0.2938061116023023,0.28138622276739866,0.2694499186910142,0.29524755422068627,0.315926000030035,0.30804549199549824,0.3092265019121059,0.2788317864825043,0.2171726021521483,0.15055168511124917,0.08532384204718624,0.035312326456813814,0.0467450379526928,0.10776568508371498,0.1779627330810427,0.2519736143819191,0.3211551734428977,0.3882292805364138,0.46191757112220766,0.5290130734596283,0.5981610312716132,0.6721235363211144,0.7406394480732457,0.80832569007089,0.8779142942792155,0.8771506620372598,0.8143505712741079,0.7407026349850028,0.6672172980560898,0.6017564425994453,0.5312815841025629,0.4662658820150376,0.40291105465936616,0.3444723820419082,0.30334048648903367,0.27165489710129465,0.2446983979740931,0.21245679885572155,0.1670639309687414,0.12080730068023193,0.08255795115961706,0.07467508423787228,0.10774102371515282,0.15166344875292093,0.1990360796865276,0.25089171349377737,0.28283714896956313,0.2983185407179463,0.2824251999529943,0.2919082655256706,0.3232686453571154,0.3374443006997818,0.32756761731465045,0.3012068350321824,0.24214477769124776,0.17022420494714496,0.10553727857786566,0.0489472207293109,0.05836440504463636,0.11612273211973445,0.18838644313391884,0.25455000131080285,0.32477804171998836,0.3984082865352081,0.46431472892985926,0.5348574178018646,0.6089313531786515,0.6809103843952606,0.7458480606526685,0.8190222525076385,0.8901456961927894,0.8974843237746446,0.8434318658063773,0.789756210462152,0.7205361456255044,0.6545713085230493,0.5809056876714289,0.509252394611724,0.4455061688946851,0.38444495665031186,0.3346618356906459,0.3015763249823391,0.2762883021210585,0.24004568472660992,0.197040301716779,0.14904253575903947,0.10026509312164356,0.07372176291103094,0.08491888088133659,0.12873248680573068,0.17382853723472103,0.22260107539600926,0.27185916659069753,0.29969447199439303,0.2912492860587921,0.26194481755054166,0.2804666874652253,0.3174135706157295,0.3272741162716015,0.3217430251320399,0.29130292838308436,0.2398381664118754,0.17666390213397087,0.10816152819479607,0.05470221498719585,0.0779238721505291,0.13995307248848898,0.2125831844620687,0.2812054426654953,HB
0.329618929527673,0.329618929527673,0.32961716117835627,0.3271376870949223,0.3005029701125239,0.279375802682178,0.22796632808030726,0.15389395129103622,0.07945030285043586,0.01814803552337363,0.0,0.04845695359297775,0.101084500355479,0.16582897565643195,0.22258030249238958,0.2666377084279632,0.24502266161264785,0.24094674621111345,0.2713005062638665,0.32370431232226426,0.3801656325563485,0.38314451058200394,0.3460842858493316,0.31928044770445574,0.32240934417550005,0.2863701593011134,0.2249104122404728,0.1513592555093317,0.07934123311003694,0.02413004123795348,0.015907993885824645,0.06887288890343246,0.1405528566201819,0.2025274121780507,0.2757409045328272,0.350307388503889,0.42487468696111064,0.4991629392800654,0.5638555117293897,0.6324386718678761,0.7069152915721797,0.7753813354964065,0.8401622629419916,0.9117154084247563,0.917607819824378,0.8482771001178611,0.781942709046969,0.7152772893839954,0.6497407414354965,0.5821772922179096,0.5076958216250311,0.43564358280689675,0.38006109555459844,0.351708737917821,0.32187349476845695,0.2891495999457905,0.2915840243536634,0.30900070747225916,0.3193073752709443,0.3509032452269416,0.3858432797104525,0.41542459104532004,0.40958101807643965,0.37989440774658556,0.3672191700591747,0.3733938109111872,0.37781884833191937,0.36297274025639403,0.346562118746804,0.3544810744776701,0.34481130585720354,0.32012981032189414,0.2976293448515377,0.27307905675122646,0.2800092560969625,0.3259755958177002,0.3809704076590652,0.4138376221622191,0.3826142741894567,0.36273371959927436,0.3486238773865229,0.29605838094238823,0.22527498577758776,0.15227880289641638,0.09042539924479964,0.027997094522255406,0.012729835673257472,0.056608610828221995,0.1272498093055594,0.2012702918347129,0.26443093715550336,0.334771196375955,0.40932661196364784,0.4838802511124225,0.5547418888328748,0.6175352830713736,0.6914131154890537,0.765976685092074,0.8380579867485967,0.9000836335989737,0.9726779004191943,1.0,0.9399033199161551,0.8759995589960328,0.801850701567282,0.7318979486474722,0.6684054306922897,0.5943169133358528,0.519944653987289,0.4549199480481354,0.4002833840047568,0.3470019881095845,0.3035982874549532,0.2879353962650457,0.2707635232127039,0.28096267704178723,0.29512030788214494,0.32621280058082247,0.35711912078201236,0.3886999407677285,0.40425449100791866,0.38345350026005764,0.3547613954956863,0.34588828769223623,0.34580161983115554,0.34580161983115554,0.3461222899891787,0.35628301121843853,0.35708433586691557,0.329495840688375,0.3024497664521224,0.3116980779372489,0.3382772185641296,0.3910888905044074,0.43139944964943133,0.4042198354904287,0.3794108633895168,0.35457915586062727,0.3407566968036244,0.27942487044310216,0.20529288271472934,0.14124169825359445,0.07955110062328608,0.0455377855631145,0.06908255508633276,0.13769850435418318,0.2066910196688445,0.27096025116862155,0.34523046605573793,0.4197977645129587,0.49433412435967927,0.5632204630578275,0.6276026005570663,0.7001300088036411,0.7516030554811604,0.8081302611091608,0.8738375789703938,0.9083317870915297,0.8531525043915957,0.779362186106197,0.7165687918676986,0.6457071541472454,0.5713025466176287,0.5053540684753295,0.4423920432764987,0.387115774396499,0.3572298289199738,0.33330233566228795,0.335338467456753,0.33251861306715513,0.3455201735459541,0.37452944180090997,0.39714360777656665,0.43195106173644815,0.4297981658419201,0.3970003412144183,0.3727803663075302,0.3472878855902599,0.3366237156266978,0.32523123264433407,0.3217502654162008,0.33744133539638854,0.35788012562125315,0.3547657018853756,0.3699959253389209,0.3552452035438467,0.34641076799101267,0.36613759151969205,0.4175674914954426,0.4633640818761977,0.43924120636666597,0.4094822601908965,0.39246677073072744,0.3590234507488965,0.28873750977571166,0.2147801651714376,0.15176473985372274,0.08202899226765181,0.02779586859677252,0.020513398053248366,0.06623134027183708,0.13834726756596272,0.21168420611163885,0.27380447959206444,0.34586891859020774,0.42043237981897885,0.49499967827619873,0.5695454631967674,0.6395416041638708,0.7029790838065781,0.7769993789361731,0.8444312652133239,0.9093092140552845,0.9360908193047028,0.8830203130251015,0.8104081566189878,0.7389604054108214,0.6765477248968077,0.6028844990040336,0.529373272805493,0.4679889976388396,0.41136516916167576,0.36652462263980023,0.3368309326588732,0.3268779866839733,0.3145119747100025,0.3188456622416229,0.35207293368379267,0.3770770094608733,0.4065546093993704,0.4083045117216071,0.38735714713881286,0.3496711746273764,0.32066966381679096,0.3280420274587925,0.3429170008143383,0.3310212927158016,0.32975724566918707,0.3382293045449294,0.3396519576738086,0.3161533576065665,0.2811718731820858,0.2662911422472529,0.2927110324057396,0.35002261054658046,0.4069853243331476,0.4295017724453598,0.39964722878854264,0.37720764656152417,0.35209482594513997,0.2963905326087031,0.230250351014182,0.16745020569165936,0.10213729773420388,0.06278449124436536,HB
0.10439886390095288,0.0799039937070718,0.054913822769635745,0.04859318921214606,0.06998358608510458,0.1019353978896631,0.1344176969750953,0.16572429126542376,0.19697616812806285,0.22253773984133807,0.22510248891318085,0.20493442407771534,0.19586961547253345,0.21985241063851868,0.22814998271425857,0.21458443061706256,0.2192591685944164,0.24351722111971208,0.2811985521117213,0.3216366080038323,0.3621792857178948,0.4022928985057793,0.44529742109412196,0.4880794259920297,0.527253908865502,0.568971660231666,0.6120553088627975,0.6546712247372591,0.6933645692309086,0.7288071486750779,0.7676546648426065,0.8099925269900604,0.8489037806490386,0.8912247857472172,0.9265080734856818,0.9086315385984899,0.866055673994549,0.8230041841567278,0.7822925811650935,0.7422900481033913,0.6993895527345485,0.6593123195177958,0.6186796069959927,0.5756318215860464,0.5325392227015947,0.48945004215507126,0.4473417893035251,0.4083681382150445,0.3657900602217755,0.3241813373451371,0.28508685618295093,0.24585449850428553,0.20871292087668136,0.17655536544348427,0.15339912426469893,0.13639554847722324,0.12164404787500471,0.09824363391038116,0.07151560681003877,0.05784225948141852,0.07261181727029753,0.10256780563771972,0.13660341289742806,0.16956895985850184,0.20173105542528158,0.23160812261651653,0.25578936010794207,0.25979166444094426,0.24309534514887998,0.24855713096586773,0.27580515375443526,0.26882399778843136,0.25795130047483794,0.2632264012961315,0.2926179691054043,0.3328175364113277,0.37336466682779024,0.4134737321692835,0.4564695980608443,0.4982196102176696,0.5373777534004357,0.580142781910746,0.6226835942675358,0.6616212747666891,0.7038121084982055,0.7468642663962973,0.7875937206875933,0.8275777312533216,0.8705674281491412,0.9136277331065307,0.9489415311759223,0.9311218798022302,0.8885492990130536,0.8460386080612109,0.8071036138132776,0.7648831376989046,0.7227446507947611,0.6837853879420114,0.6412195885662745,0.5990939712114357,0.5601282336526069,0.5175506967962739,0.47445885066070137,0.4313662517762499,0.38833019734679153,0.34790549229597867,0.3077065741177578,0.26757958902566226,0.22862800086053237,0.1925295173014412,0.16151564856367673,0.137202030586835,0.11805467516552148,0.10000066005382535,0.08032364812051562,0.055655843060762544,0.047398327205169566,0.06755288192516917,0.0957583402366734,0.12912349054253314,0.1623615490666025,0.1916434418149967,0.21755034789795757,0.2302101104885732,0.2120903764412283,0.19971871809216102,0.21986427721758206,0.22545009578730546,0.20216195353819932,0.18020630941299165,0.17204333215019052,0.1971828286598457,0.23579297040697988,0.2763224540415966,0.31623949883153435,0.3586802637376837,0.3976258577664892,0.43979831727846397,0.48257435613483957,0.5217412421449498,0.5634694105797179,0.6065536639740966,0.6493756670708805,0.688653467286083,0.7302295465192169,0.7732273176486429,0.8044504494919008,0.7799211623169692,0.7374635066362579,0.6984023582915474,0.6564855389968461,0.6136208346142628,0.5742256883712883,0.5328127499175358,0.4904329861693978,0.45151561751023384,0.4092297650562763,0.36897659623487067,0.32852816389259587,0.28549406311121095,0.24241112227842176,0.2008008961538038,0.1629394260860043,0.12826472518597853,0.0992125460143295,0.08144665622180369,0.06692255329845753,0.04641269308226459,0.02092856049824854,0.0,0.0034643763635481273,0.027934714261814042,0.058638780535306245,0.09340236845814576,0.12734289712993874,0.15887102679471188,0.1864500793994679,0.20867545861871983,0.20935860573734377,0.20787386948710718,0.22457671478114538,0.2037014351069104,0.18103210302041683,0.17163472239882283,0.1880882962767665,0.223861187949692,0.2625268454910734,0.3042978561780516,0.34338580441965216,0.3852428030954912,0.4279517837276824,0.4670324540824823,0.508908544891444,0.5519937674854088,0.5945385207442923,0.6334790788905923,0.6756633061517098,0.7187524019293444,0.7611672460686943,0.7832151279567429,0.7534336821874704,0.7144669598386212,0.6717651055798372,0.629141299410373,0.5901581761780078,0.5481831174336992,0.5080760201382045,0.46748187726591095,0.42538146490321715,0.3864250796976131,0.3439133335696666,0.30346814778229436,0.2665476229800241,0.23114999666844482,0.19336539298464173,0.16158013290664508,0.13893107641808666,0.11540959194170786,0.08875902321771312,0.06790771473124846,0.0493435738105793,0.04151508299172291,0.05611086259989839,0.08349288935927202,0.11076915694238543,0.14149371268720945,0.15348524441183686,0.16556445933736164,0.1604298875969994,0.13719466158442006,0.14123053921654072,0.16694994647652228,0.1671386088515595,0.16970516948259762,0.19781504336104794,0.22718934069552177,0.26104764264128155,0.2990322535260742,0.3404141247943907,0.37953577834283114,0.421660170067227,0.4605804436126245,0.5028522066065101,0.5459415484956817,0.5885050352388222,0.627459981620852,0.6696111765299829,0.7127006192634554,0.7556597089534162,0.795448358547799,0.8363941597242096,0.8794588101439668,0.9223368469959293,0.9617570971999624,0.9999999999999999,HB
0.9838136860222793,0.9389803176209879,0.8811220675344857,0.8252814433722435,0.7620198890048042,0.69855806860411,0.6351209117846073,0.575627627198539,0.5207766978856385,0.4576466496729388,0.3941848292722445,0.33073194015497465,0.2702509365586707,0.21615575063664827,0.1560647194890128,0.14482021696535097,0.1645309549594749,0.17481677044983557,0.16420627842824342,0.15216842900955974,0.15594946323628478,0.1576515670917089,0.1409329812793383,0.12616516243081288,0.09703101091035315,0.10383223100750993,0.1333136084854567,0.15455143032964647,0.17920271601947468,0.2126613141645055,0.23636998489004468,0.24020300905195868,0.269024848363536,0.29361540919012463,0.30197905493391786,0.2755853572437308,0.2433573147032988,0.20879061468372284,0.19648740891170058,0.1963019019366674,0.16070390329585726,0.11668424249991616,0.06390909695441205,0.027368408572890468,0.040910368371620764,0.06985488709417775,0.10098377990466045,0.14674750174146545,0.1976509709739458,0.253235756045999,0.3074837137566375,0.36759640287747497,0.4215591264290113,0.4833546606275776,0.5367568555585767,0.5980973541158143,0.6529944956868474,0.7124326273982289,0.775868871394404,0.8393185837890396,0.8987478616307467,0.9225847502084308,0.88747081603493,0.8334708864911031,0.7703901191995721,0.7070975391523049,0.6510521394923379,0.5928869980582696,0.5294787341552587,0.4660221082091758,0.40475800322632316,0.3511202657628709,0.2885669198774068,0.22510549482339326,0.16165318060286382,0.10130690069289439,0.055511621204826556,0.07148639889536956,0.11568810837342203,0.13114634314425389,0.12285871102717816,0.1042869706450642,0.10475202520910609,0.11719450950612109,0.12166890757898874,0.10936245709522363,0.09441569509545711,0.10837362561306763,0.13590562418827612,0.15076629721417567,0.16726717623813347,0.19096233037840205,0.22117926234698237,0.24671716679134703,0.2622662130805977,0.24342875158834532,0.2096017657113094,0.1712187867143944,0.14513142570649706,0.14025699823515558,0.14765253072023365,0.1465713728887421,0.16619979664545537,0.18955895012233825,0.2336085897581357,0.28435029638140885,0.33770494452431987,0.39070816690716437,0.4441595414445396,0.5059198068508841,0.5595923214431433,0.6207961878578006,0.6842525263555135,0.7477040543055822,0.8081757787354757,0.8622615429086415,0.9240113205492422,0.975797504773886,1.0000000000000002,0.965026669172621,0.9033910640834797,0.8469180081778036,0.7891928314562533,0.7257994735243123,0.6623376531236167,0.5989514543819225,0.5413317803563731,0.4847798428682031,0.4214262341924455,0.35796561963216944,0.2958082991525586,0.2423421782755677,0.18051957971807586,0.12169061442286577,0.11621543665675937,0.13680210701180306,0.15732659104334412,0.162358005330957,0.1547608767523554,0.16278329197614227,0.15634272556689077,0.16313217867947638,0.15967247263475515,0.16422592670671565,0.1949204344835438,0.2251533615714385,0.23651155396721735,0.21583999663330666,0.18420626639630622,0.17490418992294354,0.1883827065929602,0.16911147300360452,0.13561267674961086,0.0971742638735027,0.05871214014186932,0.057719046795855045,0.08342187443667437,0.11644644547108851,0.16804524085375694,0.22497489859173192,0.2782819675281598,0.33571585275898985,0.3837749629588638,0.4293278387421011,0.4915827132600137,0.5533450993310394,0.6068324549819868,0.669033691877982,0.7311938751116898,0.7845537995276597,0.846083540260888,0.8918658851549306,0.8818650175195233,0.8351343473897004,0.7749433718301921,0.7116120914836086,0.6547079967151401,0.5974227847061082,0.5340443327452362,0.4705825123445424,0.40713075035179913,0.3468100223418118,0.2926191529075288,0.22967096351374816,0.16635052305761744,0.11121402254456769,0.07387031256745202,0.06469673088797401,0.07248066716289592,0.058137694178819865,0.02495943795056288,0.0,0.008093641909649785,0.01995353094715857,0.03467644318813057,0.07246261104666663,0.10022441610148314,0.11931842015642435,0.13833528279221663,0.14773408557962164,0.13059810723158516,0.09564396952702459,0.07461278520779868,0.05976686506074258,0.03383248092713553,0.03273693965789071,0.030939697371586083,0.03862899997677105,0.05801719654768145,0.09005019620805155,0.1357074858962195,0.18870114919140835,0.24239916201926115,0.30258173752295225,0.3659379926115862,0.42295922579310674,0.4801182353761646,0.5416292247676127,0.5951641496910034,0.656837229623308,0.7108623350780794,0.7713128645855492,0.8273569542724044,0.8690089536729164,0.8547246199216512,0.801105344819123,0.7470997069674461,0.6842523286821705,0.6207907652568208,0.557690686607885,0.5027827191771694,0.4433215376599786,0.3798792870236454,0.316417469446858,0.2531384650244737,0.19732205072677167,0.13892346181993198,0.07777855067436623,0.06708856604839375,0.08940848544099977,0.10230085100605968,0.11870902234025338,0.13953011864273157,0.15069250186157457,0.1587574041862314,0.1734097926922631,0.17934188931537354,0.20079813918355316,0.2346332738035295,0.2335019970715806,0.21080796082859687,0.17703954391123777,0.14538613004821532,0.12272936047393412,0.11047506697172937,HB
0.18418470693008815,0.1692346727512335,0.14806997455359028,0.12283772737468746,0.08871359994223815,0.05325272540018333,0.025038087820748123,0.027537603355562323,0.04950347367358576,0.08218818924876281,0.10888875931420361,0.13310534360239878,0.15605610986747442,0.19423010892104897,0.24334722621218186,0.2943674696766272,0.349761162533905,0.40322810844654944,0.4580388857659916,0.5136040603878385,0.571483413372414,0.6245181389291352,0.6828878358792461,0.7351433116352528,0.786768414733978,0.8179814947590349,0.805116593783149,0.7680206473167213,0.7200554540409174,0.6745285626034601,0.6272710347768304,0.579345143657289,0.5315695639584457,0.4806324919651386,0.4268771423565403,0.3746354723486802,0.3228598514282168,0.27095221268151115,0.21209418205197816,0.1745404102101502,0.19271809533905104,0.21656126836086353,0.21176910866192133,0.2004083845955007,0.1798263608034334,0.14744281562442185,0.10818720710827234,0.07414660745742174,0.04114678599729826,0.01991130558826515,0.03179481094802705,0.05679425151524686,0.08316256675367706,0.10464854750550079,0.12513369422570153,0.15046630247969217,0.19402471499071305,0.24689290829276955,0.29912327546715245,0.3558093262144215,0.4087517380786354,0.4658698756610542,0.5191386510643208,0.5792186538918125,0.633694711078647,0.6899478570559061,0.7505279995364804,0.811057415507004,0.8662418786976291,0.9199204113373207,0.9705743008390166,0.9999999999999998,0.9738085680143536,0.9247155459010374,0.8789255730315817,0.8288505678551832,0.7787230319858007,0.73337678464736,0.6787398345985534,0.6243496226970151,0.5719733802317408,0.5199093584237546,0.467871469740915,0.4149826356056827,0.35870703184663166,0.3063430621844798,0.25276943168263966,0.2022663420756623,0.16479920509468937,0.17909952836800636,0.1967643955195424,0.1981822069360175,0.18110859217869169,0.151105266322755,0.1162048844099346,0.08358666200581477,0.047464602953358526,0.018156419628349685,0.011974319264286937,0.02758271150184588,0.057735214202097485,0.09371465101195264,0.12695522619072364,0.12629396075827293,0.1102183097781646,0.13785294505779588,0.19149520893285987,0.24532961462620717,0.29799233595216923,0.35662404673885084,0.4090073560800822,0.4684510576553731,0.5266821370294881,0.5795445586918035,0.6388539517064709,0.6914537654176296,0.7497033380864735,0.802940448890715,0.8594839838295185,0.91099356621324,0.9571533329066544,0.9647196409997914,0.9245075514783763,0.8741203909581363,0.8232525835440476,0.7716427960442853,0.7230795040420757,0.673851791311064,0.6233776183715805,0.572658300414999,0.5203661574714624,0.46666645847227883,0.41491198025814224,0.36306368455183224,0.308018677551132,0.2673899498973997,0.22252975287105325,0.17769739205603585,0.1900622167558359,0.20856415569617548,0.2025859609110383,0.18715669807737356,0.16231677550159174,0.13013136372515954,0.0910545401065519,0.05491133524617453,0.02073656697868076,0.0,0.014133255818401746,0.0419947847500044,0.06904661546688673,0.0967742080673688,0.1157749328023423,0.1404566410495447,0.17884953916955726,0.22675098705149832,0.28181608610340403,0.33416837236600494,0.39196024370431215,0.4444303466444466,0.5031351445013581,0.5555863118514728,0.6144671772616175,0.6684999077394556,0.7251923135038838,0.7820404457205947,0.8355593609300842,0.8885589815812469,0.9405574027632169,0.9503675127386588,0.9110312371129476,0.8683840029796583,0.8225916560662243,0.7712882285533926,0.727539920780188,0.6784089447562642,0.6271785160705459,0.5693495486687901,0.5173575123987193,0.46540299469319746,0.4088762640413557,0.3566366172794466,0.30323413198872107,0.2508842479455857,0.20072270439823048,0.17421438936031453,0.19416403621688616,0.20857235007595465,0.20558630444402737,0.18957652088675592,0.15778325065404375,0.12330908036083787,0.09009506910019716,0.0641694153671084,0.05733708817845984,0.07644578808284908,0.07713240173540936,0.05968043227860109,0.0778775172728734,0.10660933612395262,0.1428258611487756,0.18378091319404377,0.23252526405028706,0.28442765504101164,0.3442480659068461,0.4047433388700987,0.45958060113672716,0.5153994069806356,0.5713999033416173,0.6260207656087522,0.6831242787466885,0.7366820655955115,0.7931859637432208,0.8462081604035234,0.8965634190853324,0.9252346903949011,0.9032248107427214,0.8569057383658747,0.8025379586473476,0.749086815219967,0.699222032420207,0.6522706434579104,0.6038129149926397,0.5568871077879896,0.5053905145110693,0.4531112038424716,0.40053158123652466,0.34654332903484053,0.29352956935444463,0.24157580740269413,0.1918961792475713,0.17989880474831477,0.1996251665554576,0.20227153046263102,0.19512062366897354,0.17406644828254825,0.14721044586532428,0.11487311462171168,0.07843459458192359,0.04113831078383523,0.019652398216171818,0.029005173717654653,0.07634254125007534,0.11842432111483037,0.1430579974666042,0.14084690544751188,0.10421475659012192,0.06948852906272585,0.08477853447222694,0.10870750342388158,0.13207921699939806,0.16500088214748487,0.21284241533627624,0.2647349117704374,0.3172459007785686,HB
0.12112928918225752,0.08854273506956556,0.04912413158004991,0.014329948879171717,0.0,0.019603514276763878,0.039414448529429214,0.05470245037160715,0.07831949882573341,0.11699031565341067,0.1642060724942498,0.21268946820259993,0.26331048658875744,0.31210538572531044,0.3647916565759577,0.4141220892020878,0.4655423010437538,0.5183194930376751,0.5670484566432221,0.6193867536014621,0.6695097691863383,0.720039174205432,0.7734377569718238,0.8268994997645014,0.8803548548310733,0.9325279911867181,0.9798899917454265,0.999007558653753,0.9585126539131847,0.9086974167039563,0.8580063639980735,0.8055743586907742,0.7568506957312151,0.704094807270784,0.6506455386680108,0.5987615873002181,0.5497681814479478,0.49667697032498204,0.44363851944481447,0.39471888200062355,0.34276124060398017,0.2920447933664583,0.24225844799166296,0.19273503251841317,0.14873747817374827,0.14264147219826429,0.16702043762328245,0.1663422688161178,0.13263820614857402,0.13244031140007007,0.15026023291024893,0.14920908493056873,0.12524391285357628,0.08946903802199047,0.05349553042646915,0.018515977819062557,0.0004167688873984998,0.019055882225242793,0.04049580991004231,0.05714589305662776,0.07740485026607291,0.11258871248888536,0.15808971654509074,0.20806897841130878,0.2614295105943796,0.3144269309324028,0.3633061857732307,0.4151833725713334,0.4645852758503084,0.5159072246123664,0.5687294970642529,0.6174771706015119,0.6698448120554461,0.7226805987025211,0.7685616237710438,0.8118778987573807,0.8630184110338801,0.9118811694903952,0.9625209964644368,0.9863992797271757,0.9535548035379529,0.9017565867613273,0.8493631325687636,0.8006279498382849,0.7478021893909033,0.6945751075538971,0.6452243494106642,0.5938238685709365,0.5405054049372922,0.49057223347500045,0.43983874094705167,0.3864261592166296,0.332964416423952,0.27954698426109803,0.2287209788273623,0.18019652309248513,0.14431911923941554,0.14745695515312152,0.17474610162341908,0.17302290930777264,0.14530238551814723,0.14926843370677179,0.1515663533049194,0.13349925681845276,0.10235782377294611,0.06692783590315554,0.032761012433099035,0.013058285275006187,0.028668918837120416,0.050215598605120704,0.061971840103464015,0.0823292536349427,0.12528693522911438,0.1733771289568906,0.2223041637170895,0.2720186988009783,0.3226529794650512,0.3746663859103474,0.4235500601635913,0.4762680907669601,0.525440175770862,0.5769491612245583,0.6268161013986,0.6776011804191917,0.7306178569502892,0.7795656241470839,0.8315004277013973,0.8828620194977359,0.9246387940732657,0.9162509105146985,0.8659865697717319,0.8125322194938893,0.7592949670017857,0.7099064883383401,0.6585515928465817,0.6051244373757079,0.5532826402270388,0.504260187783587,0.4511563135937171,0.39841259222501946,0.3496996213685992,0.2975606329371996,0.24855524737748813,0.19846777370826518,0.1530069167828514,0.13253048684594937,0.15313111145922242,0.16530724164076682,0.13778866928999145,0.12135536244281453,0.13940853924636598,0.14520423886824396,0.13311125958826175,0.10423702726261541,0.06842195848242705,0.03191441547228446,0.007820825552198096,0.01498396807609681,0.03555548407719411,0.04999026433786091,0.07135791602154484,0.1113748654465172,0.15754059321907832,0.2065180915915763,0.25598154054112965,0.30692597089496787,0.3574152567098703,0.4075446509009266,0.4602493172493267,0.506859386383385,0.5499343148562077,0.6005423223699862,0.6494652751343668,0.7024639622661184,0.7532884032747083,0.8031362119434844,0.8562931466431907,0.9059034075805747,0.9564257648924108,0.9851514807690294,0.9515489014009593,0.9029128485077564,0.8499224378717218,0.7999018120692216,0.7492622218495848,0.6958786158031998,0.644555499112786,0.5951463852730061,0.5418961679368224,0.48856209763478065,0.43867972855793447,0.38789197323358193,0.33470879098082307,0.2853542266068452,0.23485004020503997,0.18660359505579382,0.14535933385725697,0.1425033698128233,0.16794748595218412,0.1621953117878041,0.1291733468253864,0.13353316685623828,0.14960186900137007,0.1488349673210283,0.12347009201145664,0.0856330911959966,0.049051479670895515,0.015787524073553327,0.008687758433101989,0.0305671779249429,0.049400095944970523,0.06301963993621662,0.09005026355865353,0.13099565090837628,0.1781987858615548,0.2287255032544917,0.27766412647868544,0.32948124302012194,0.3796648321121838,0.4301249968371419,0.48351933848932926,0.5369795999556268,0.5897354884160577,0.6384591513756182,0.690942115546648,0.74427237457352,0.7941341517750413,0.8449408695649365,0.8976851450172361,0.9463916444921647,0.9944120038442621,1.0,0.9598560591149017,0.9176988046813515,0.8749403975513994,0.8290223412349005,0.7780884017727396,0.7246643436691014,0.6713854940232313,0.6218209862654589,0.5706772084624787,0.5173368415354924,0.4671549231795724,0.41668555132731333,0.36412981887243245,0.31542166452505316,0.2630403074640473,0.21376252037903187,0.1646186251421986,0.14393885434451903,0.1632353418170358,0.17051869024441446,0.14053314712199438,0.13557419151615324,0.15223479388747196,HB
0.005623964338360876,0.004315952881594143,0.058020531965824795,0.12602315667301445,0.18868749205564905,0.2535156455771236,0.3190461123806133,0.381097262515384,0.4474723697331754,0.4820845512915025,0.5012933015842672,0.5454855554490358,0.595306191399238,0.6506920888436739,0.706829703439953,0.7570496571319411,0.7982829131486989,0.8319271323728102,0.8669913192161344,0.9019329636497796,0.9318546932077175,0.9137657136097866,0.8700191223311345,0.82174313596661,0.7760481850935966,0.7392684648105602,0.7267639133738805,0.7336134673906386,0.7318636918097815,0.7209773211923071,0.7353146101759674,0.7638051954994535,0.7583971652520237,0.7448073416591431,0.696305418006192,0.6366716227843693,0.5872971745042083,0.5941322083271919,0.6533139616824465,0.7155437127202408,0.7820091997018702,0.8432841834132953,0.9111598453625839,0.9785893762753094,1.0,0.9403005326479835,0.8776956699418889,0.8128161449134735,0.7462471536077654,0.6849219859166306,0.6169650611909338,0.5508206469438418,0.4891859726486206,0.4212117849702425,0.358065197804719,0.29378358127983273,0.2289918922354769,0.16641580893567165,0.10268314239309506,0.048317066115988516,0.04357844198671623,0.10119714888068243,0.16321754412386646,0.22868549737397126,0.2935768527379673,0.356077531921266,0.41699195211309836,0.46793375773317225,0.5316567816915466,0.5951050817795683,0.6565249768222016,0.7142255467298878,0.7667641905734225,0.8114337349997466,0.846695882036186,0.8810259942191999,0.9153359197734828,0.9440845375413681,0.9285994225133095,0.8837785379817237,0.8360921271884995,0.7893100061828157,0.7520812651802192,0.7367561007552955,0.7434006473664375,0.7396454578975141,0.7300194265222554,0.7454358215875222,0.7754788731861658,0.7674006744785941,0.7518403323110135,0.707189078366046,0.6462408264344169,0.5950587752890525,0.5883588748898677,0.6419595661569847,0.7030903579262123,0.7705046886447152,0.8321782743429454,0.8982621743742581,0.9647796542320742,0.9755421047502449,0.9128049545316562,0.8486151773390326,0.7853504639112757,0.7173701829178037,0.6558385457670154,0.5895895653150557,0.5232986746365414,0.46982073152361814,0.4153640003689981,0.3658261731287241,0.30649108029864236,0.23949186320893612,0.17837465716935974,0.11197871777639568,0.05340294353463848,0.01874262168320684,0.05025475794127554,0.11426593711673683,0.17599028602675582,0.2437981043627152,0.3057164955077335,0.3713154323042097,0.4347228753272806,0.4986572094700631,0.5624592155845957,0.6253096910916426,0.6852265863102981,0.7395385242130373,0.7854084421427191,0.8210638783950422,0.8544453907828972,0.888747167805194,0.9199237124309688,0.9168327985151749,0.8743947841578096,0.8280006931972009,0.7799187567850153,0.741512364765904,0.7256018080143091,0.7245678618315899,0.7224821722093423,0.7161757955534614,0.7346243992848617,0.7591750397960794,0.7546174239669069,0.7334110312594465,0.6770849679675034,0.6183802399008572,0.57440847063638,0.5939921392965372,0.652407584887876,0.7196439764196073,0.7882873054810554,0.8548266016574152,0.9161525760031307,0.9720080294631085,0.9435540730021902,0.88233349799816,0.8167453564519292,0.7519818796063688,0.6892598434649327,0.6216121957530146,0.560344517272659,0.49357162829457557,0.4259371081365747,0.3648412996365712,0.29788952426604964,0.23902941011020562,0.18890117392905081,0.12481580624809807,0.06474781683995645,0.015749195026365403,0.027524486316591545,0.08455548504965005,0.14523994467120038,0.2107987493855431,0.27217984019410546,0.3401483945522964,0.4049709558617428,0.4676555936238994,0.5347253752614788,0.5956486971027185,0.6576122980646949,0.7155019955509748,0.7650690489826436,0.8081844964710375,0.8411158900726184,0.8739718431557572,0.9074530394581745,0.9345600077161992,0.9142688077297515,0.8689890089743061,0.820696890832202,0.7760281943142738,0.7415051404121377,0.7356308053338078,0.7427481023560475,0.735999938702245,0.7179326407600838,0.7187732677221575,0.753147166041093,0.7634761649538085,0.7532170453360193,0.7225982051836212,0.6637498970895394,0.603955433533638,0.5583831599494461,0.5760833034848464,0.636509746859779,0.7037014352280927,0.764783562516519,0.8304370031407761,0.8915459926090458,0.9438918512335716,0.9145897399344555,0.849735913167588,0.7819406598707898,0.7207024283701094,0.6541804066647722,0.5920239802696071,0.5265932974129625,0.458416519238254,0.39664242887230905,0.33070484128713196,0.2632052201552456,0.20213937205192234,0.13576542520427204,0.07900131953610656,0.031929811104040695,0.0,0.03535365587963768,0.09410978688393223,0.15919039802627954,0.22064895956440245,0.28699035544143914,0.3521629095682678,0.41452347580357507,0.4822783666017335,0.543688035412868,0.608486522898264,0.6681002769922962,0.724101625059523,0.7713180875286686,0.814756831389014,0.847431113515415,0.8812155126507873,0.9198053197198967,0.9471206997737781,0.9214731136428073,0.8759303281082284,0.8287071148560922,0.7822436884490261,0.7497573400965923,HB
0.10150056806095775,0.11959924989183168,0.19014315981578744,0.25868856830050846,0.3410709479867309,0.41790554524714696,0.49859316176074286,0.5808167058584817,0.6565797803120643,0.7395031554238771,0.8153730598899538,0.8949030965684421,0.9550888742146799,0.9362815562404172,0.8575249143997146,0.7758680886232232,0.6997563054483347,0.6158087940369728,0.5312135054751981,0.4466674988691872,0.3664114738347364,0.2891865218668823,0.20489575732247522,0.12043017820284829,0.05632123137346601,0.09052148140661886,0.13298384452309286,0.12410763579601536,0.08475566019056302,0.040521773489022195,0.05985671611176424,0.10106687429842176,0.07839496143150737,0.05891131499581692,0.08147283645422454,0.11781495533853925,0.09782208073640186,0.06831086304145884,0.07837513027894061,0.0839573091057415,0.06179350009895446,0.09859022760015557,0.15901118734402675,0.23559443366332178,0.3116135998363163,0.39370479200869357,0.4693085278582856,0.5515889967847654,0.6272764651413876,0.7097801850841774,0.7942411664678384,0.8687783355136778,0.8777868870446761,0.8130521568325528,0.7311923030536305,0.6466193754066751,0.5643571831824536,0.48856717883379575,0.4048868288901144,0.3203020358211017,0.23808814914059417,0.16227815914995358,0.07980307042646584,0.04654167366523776,0.08860124668827885,0.10201514916407839,0.10594273680505029,0.06730762360976983,0.04431111051598191,0.07509826091318694,0.10994844760078593,0.09643883073772663,0.062410533931942735,0.09413611973024305,0.10611238191133832,0.13909289964761506,0.11339765232805732,0.06848151848172179,0.0785363093129352,0.06855932402786968,0.0989881060275355,0.15914800444360222,0.23339480319846095,0.3099789166838096,0.3890627617768192,0.4701176309741568,0.5465669663029196,0.6272096468280404,0.7036388692232725,0.7803655419707043,0.8401570873231801,0.9035825609891053,0.8815975036329744,0.8088540587951021,0.7255411768575704,0.6437866071412388,0.567731578801163,0.48380550315195303,0.39932531654826975,0.32043683962625624,0.24194253583187897,0.15777283126071384,0.09822898743084063,0.10733815172972316,0.10062424548665083,0.08818540127505892,0.0475382546703953,0.03039130003761703,0.07666033722502075,0.05680828549282979,0.01737488872437143,0.0,0.0174648034851419,0.031474791196481666,0.002813896372516389,0.01146765575328157,0.01670616543229997,0.038363343040354936,0.09505617723246007,0.17629831822669018,0.2527858607204323,0.3329636202388151,0.4086824385576804,0.49080609093857075,0.5684155315036274,0.6481952934191846,0.7285897845273668,0.8056331523155429,0.8870245164359714,0.9602903743388833,0.9950834085831259,0.9370180514416304,0.8528472668123321,0.7682516261428989,0.6838256052900091,0.605553478109554,0.5264282525371884,0.4419338779901769,0.3573382373207459,0.2729197920151465,0.19473326896546417,0.11586782695743514,0.05660284433611418,0.06453605125903894,0.09708882882020142,0.08414096470148591,0.04194737325878606,0.05453661309543478,0.06009513269500477,0.04259331655162968,0.06820021326253345,0.04240860525368184,0.03994510860441536,0.0672914876862043,0.0396955761548321,0.034947885727926176,0.0940002305151666,0.1470881994537121,0.1276268972943686,0.06958022284250776,0.08588211806355606,0.15236027720073397,0.22646130962370115,0.3039051804264423,0.3836558076007759,0.4435887398292857,0.521317439122986,0.6036614892989751,0.6793482863879066,0.7622836908975532,0.8382069370883791,0.9178516359587598,0.9870613686267051,1.0000000000000002,0.9321228913309196,0.8566289171997215,0.7742058867439419,0.6896174232387648,0.6050264493800126,0.5221966670171556,0.4466424363388046,0.36329776678418857,0.27870403441660874,0.19410865548759104,0.11063533596975961,0.06929458130309185,0.11020877051434308,0.12164617082433016,0.09174948930327331,0.06092632935082132,0.039369681205263296,0.056355995805296155,0.059900028527864135,0.07422165749577703,0.13628371306533338,0.16096937199352035,0.10554269851936082,0.05632226439664434,0.0756775260514373,0.06899929657291648,0.018324365654561525,0.03976586441327812,0.10513832602008333,0.17150699048125628,0.24529578626903548,0.3220834691510477,0.4062026565273593,0.48527524203592454,0.5634919139190802,0.6423597635940659,0.7188293521328679,0.7811476961767252,0.77281246573889,0.7014085162974169,0.6314924430556113,0.5645055399169523,0.49824135308078765,0.4249236613792451,0.34587852065337743,0.2613874770983713,0.17686276244477317,0.09714939649405507,0.02410491625614175,0.01799566582333889,0.07499436761265255,0.11500529302049545,0.09132585319912478,0.05460172977824218,0.026705937298962423,0.051997261676943296,0.05362749108742615,0.05977658654072471,0.057337781781932495,0.0968658883993263,0.14835689233125504,0.11922755529537277,0.0645553662893339,0.031885294370106676,0.07500865245637112,0.115894756982035,0.08454341928813647,0.1040365092486133,0.17595173898337113,0.2541584468082163,0.33010142949116505,0.4117100473602673,0.49008366227374744,0.5683881505227462,0.644291789775677,0.726109348172449,0.8099196034708946,0.8755561774556517,0.8718842731325755,0.799312920529961,0.7209594808594837,HB
0.1688831736235099,0.18372774914214762,0.2177712471817257,0.2596631953914419,0.2873505422399276,0.2788384644162889,0.23664686981452254,0.18898249295447656,0.1366099359957147,0.09176633974527393,0.10410208834265244,0.14268648041935883,0.16435420531267253,0.16797671216255727,0.16799173924176314,0.16748408339442822,0.1551275605437179,0.14156325449080898,0.13339896542627772,0.10441220538224538,0.06862858658691406,0.034896500525728236,0.028179389566013402,0.057023051710209494,0.09022765045462533,0.12143408517748533,0.1396613215866367,0.14577932575205965,0.15138860971739865,0.14173106179899042,0.15177227339432742,0.18696339966019693,0.23764292658860287,0.29014198899770927,0.3519724252074292,0.4068477214118924,0.46560075595084927,0.5290342680594677,0.5918688737360789,0.6454016340618947,0.7058516852398302,0.7693024775250823,0.8313926392962405,0.867840136332815,0.8461698609905604,0.7872328691272941,0.729279133025845,0.6736624769975497,0.6103839408600784,0.5469226777852563,0.4834643680555919,0.42189798519219623,0.3689997851779858,0.30665296342301795,0.2431923876494677,0.17973575815056142,0.11884318879514266,0.06738731517756413,0.05894014134386305,0.10789642665346966,0.1558156882463222,0.17545706876580036,0.1817363952825639,0.1939103945788303,0.2261648201437776,0.2706466832345651,0.3078580833957161,0.3090901570065898,0.2728937761500583,0.2283018553259586,0.18380818834117996,0.14142234098770867,0.1384329658268042,0.16935282485395176,0.18340110539282328,0.19407937755962656,0.19514353238759874,0.19514390616874078,0.19512733921893277,0.1914937376739001,0.17523859668064512,0.14646681695578412,0.12041339976619492,0.13511240255040802,0.1642027849700054,0.18846936359503896,0.2018609624838219,0.19829868578124232,0.1857094330362523,0.17269747726428974,0.15348612444659215,0.1529251477865463,0.19190784759675283,0.24310450939844674,0.30297661091147354,0.35581698828596187,0.4176589048938313,0.47974619583220823,0.532582105504972,0.5944675432230899,0.657926170020791,0.720426781700636,0.7733984327441545,0.834584362534148,0.8865866485351623,0.8836658189883271,0.8280148382136638,0.7750849760327916,0.7126029005737711,0.649144195572521,0.5872091270992232,0.5343829070351291,0.47233337188059643,0.40887313487165367,0.3454121755449062,0.2828553107385754,0.22973684654536042,0.1685995517850274,0.10514302307588697,0.043016119598213276,0.02704654708137344,0.07509218771491044,0.12320340884152081,0.1448961105259241,0.15407572926966306,0.1557585833362749,0.18029842315168354,0.2242403348186559,0.2459489061073148,0.22141329983722668,0.17952943966448576,0.13509686058441162,0.08997822248729248,0.046682317713590216,0.06517022146471385,0.10731407120686542,0.12695044308332593,0.13776720188043523,0.13229244007777297,0.12621888695752403,0.11572965797526757,0.11048308157699571,0.09465279764895884,0.07029972807738583,0.03911790392694359,0.006512826188104004,0.0,0.03337489160680196,0.07126746136857465,0.10444196493612523,0.13344766830351418,0.14755046509181158,0.15447250381649225,0.16218814031942452,0.17081171702545017,0.20151237021523816,0.24898030940817462,0.3068399356313205,0.36127046579860655,0.42399926357203777,0.4781639935333959,0.5377318934851596,0.6011706044728617,0.6625066029234907,0.7155548337643118,0.7779816641617621,0.8414313872113803,0.9013243795921753,0.9548098182243305,1.0,0.9884865901100381,0.936418826673536,0.8732306994934058,0.8121889846133312,0.7590302971423806,0.6964184681376007,0.6329574102759539,0.5695525337924696,0.5116761627955819,0.455975213240865,0.39268838321498833,0.3292271201401653,0.2658644312606544,0.20898955670295427,0.1525907639538091,0.11893672781158227,0.1556312477930466,0.16813298651305342,0.1774104410523103,0.18887549618636434,0.2182578339886927,0.2579833165553116,0.28672894904256374,0.276343298299361,0.23412070533670715,0.18168812639907772,0.1356756816557767,0.09140616193367546,0.10249468681222806,0.14217584214870982,0.16579597322252804,0.16798879622710228,0.16795101190222406,0.16271063919159934,0.1545421505995903,0.1479978807855118,0.1297682938764706,0.1016525984551615,0.06730628544499906,0.03362896166529161,0.026980657432565724,0.05660766148220109,0.09437197655302354,0.13074272855947644,0.1517710335965199,0.16432742623089558,0.16797478037790725,0.1680219738945219,0.17513643095239484,0.2121576915158001,0.2638335227238442,0.322305768022185,0.3770723926998585,0.4402310912064449,0.5036923542812679,0.5671536173560909,0.6306099538739041,0.6917018306478857,0.744836348178791,0.8074177306802044,0.8684604634623563,0.9145422289789189,0.9147530239209511,0.8687908192118838,0.8077897909492311,0.7443340565448517,0.6810249937480255,0.6253106819957601,0.5674744430707994,0.504065029483888,0.44062734878733956,0.3814566957243186,0.3269639533816493,0.2637960024229211,0.20033703828759153,0.13851940815378594,0.09359414207625694,0.1141602642613817,0.15895452180113745,0.17965346521237224,0.18157297312924525,0.18596072522835172,0.22289513114939075,0.26558269009181723,0.29924208411982267,HB
0.1377332694585569,0.10782364634601427,0.08618467364877413,0.10739676488226824,0.12424909157217434,0.11234911633507516,0.08442803815868793,0.05272747885916251,0.01780926874438027,0.0,0.01979797757598134,0.04643593973670179,0.06844266799695742,0.08460585017764144,0.10105223799733376,0.13894935577439438,0.18562905064211566,0.23863010197747214,0.2898773837632995,0.3421385822415983,0.3977229673860505,0.45234032213143993,0.5020326726656243,0.5567116194224819,0.6117618104062574,0.6616201646035662,0.715640174376055,0.7677565254924892,0.8191585959757421,0.8743638239279903,0.9247122849490601,0.9763265778847983,1.0000000000000002,0.9635095183211033,0.9083815241553876,0.8527416152801492,0.797101533143098,0.7414629024389818,0.6866495971147988,0.6369224227326036,0.5824731663131404,0.5268367114667136,0.4716600266576436,0.4216268281307205,0.36784143880730635,0.3122556777332932,0.25976637490426335,0.20870528026718005,0.1534085316735645,0.11130807754044114,0.10822335346828038,0.11005589340865973,0.1188466090275071,0.1332518003829719,0.12965296095986845,0.09800933332641337,0.09222045260447809,0.1160500506749691,0.1241558468461601,0.11776458350795127,0.08631968509525634,0.05563379132737056,0.03204783337628925,0.041454785944409656,0.06457196000810694,0.08326182292002371,0.09103510428418327,0.10028845882868764,0.13053418260130467,0.17713595571993812,0.2279931570882463,0.28336334385004514,0.3349674010343433,0.38687629975779037,0.44244268744065507,0.4980814882355076,0.552889323415731,0.6021775650892709,0.6472811243502683,0.6968219626264109,0.7482490141427944,0.800247718660587,0.8553511433030294,0.9028954685479895,0.9188748979341528,0.8792772589832827,0.8247956420839169,0.7750150674184404,0.7208249625847807,0.6651925283976299,0.6106821117615915,0.5610019260893302,0.5062034203164629,0.45056545796415426,0.39559052732416955,0.3458212741256279,0.29157513651665923,0.2360142547735531,0.18411775762912286,0.13413265139451824,0.1108875799901401,0.11517475645521746,0.12219544420742023,0.1347891192799573,0.12804830792451205,0.09623427842213617,0.09346072699155528,0.11249183684680086,0.11845152935839476,0.09901023692959998,0.06948477371228212,0.03466588741101728,0.02063126605372778,0.03906174396298945,0.062367325853127875,0.07711213466496525,0.08448807801142633,0.09666670211817574,0.13302776880120937,0.1844970820840124,0.23476396264919797,0.2881396582590916,0.34262782186938523,0.39234338830224424,0.44710903356294973,0.501591682700814,0.551311602114674,0.6060238638847817,0.6579606513157348,0.7095429904101931,0.7650699393800584,0.8188086870612914,0.8688706847929797,0.9233160097480797,0.9639590652807224,0.9466756851089542,0.8982276497795214,0.8432203837373218,0.7884913953787798,0.7387859859015913,0.6842316680284246,0.6286435972033717,0.5762797517672442,0.5251049138716615,0.46960923761159745,0.4140203222495773,0.36170209768359607,0.3104858986031047,0.25498415567690014,0.199397047295784,0.14713534033886,0.10081047220553807,0.09802393653368169,0.10933463115545594,0.11459642401295134,0.1280517045197085,0.1358726234629839,0.10974682806937852,0.08818340283556458,0.107192683705855,0.12457502241215357,0.11395508198193127,0.08545052210164594,0.05356425728101377,0.020977426096476792,0.00794558288672409,0.029064647141217703,0.05164463696261845,0.06421889040528983,0.07144689685922989,0.08558978020471719,0.11634549379620385,0.16174052870126077,0.1996124132951318,0.23899716010833383,0.29316912176621424,0.3485552959362097,0.39907826727542894,0.45217396850725833,0.5077917771989355,0.5634300100961407,0.618117405810668,0.6677952464081809,0.722419059982804,0.7779307353921217,0.8292296568424307,0.8814495773038351,0.9348685604443225,0.9602117911397576,0.9289716424023331,0.8778584341109383,0.822697693028035,0.7725396977971966,0.7189502033709436,0.663323775715079,0.6084380176631228,0.5586919803632546,0.5043337772036689,0.44869752888894854,0.39307107914505335,0.339500440442283,0.28932835870292295,0.2340725507827326,0.17886453711914263,0.12901150375033632,0.0929142457739569,0.09874283114706994,0.10540181833962192,0.11528953064660397,0.1264974338353151,0.13553474335058469,0.10673687397562293,0.08812024445765099,0.10759445856811967,0.12462166192778912,0.11718049965248478,0.09330145430119607,0.062200846961366185,0.0430976376370511,0.05514297188929218,0.07581282207468365,0.08977388874666636,0.0966395692679356,0.11629521060343406,0.15712569472021398,0.21017059030888507,0.2603130759075061,0.3131609961015045,0.3628972048446997,0.41722857561299054,0.47083251518186775,0.5209786250123332,0.5761867793339761,0.6288643147095132,0.6797539189827555,0.7351936492417028,0.788745813628442,0.8388304233956052,0.8866798342690612,0.8860167246901851,0.840553748424236,0.7859182103108553,0.7327739597314826,0.6822883170730998,0.6269143529064578,0.5718532370421274,0.5220161476213572,0.46792292345954745,0.4122965223900814,0.3583738771968119,0.3084495346568932,0.25330341300214054,0.1976717091773843,0.14378566020834116,0.09783879379651328,HB
0.04024953660894304,0.04146304197731521,0.061519173040423425,0.10230342367891287,0.1519238546364643,0.2080448119199665,0.2605383072020877,0.32154162241548523,0.37685933948396544,0.4329905514014345,0.4947457624228804,0.5543610319417849,0.6068298771438498,0.6678520490713495,0.7296869436696767,0.7905852801444606,0.8429469826675624,0.9027896613127409,0.962431675563626,1.0,0.980549177786016,0.9232587647784638,0.8701602241036253,0.8115058631777421,0.7497206611602554,0.6924064547349658,0.639644772803869,0.5955184178440938,0.5395250026607301,0.47785723627705234,0.4226089605332519,0.36638432483908634,0.3046204399760124,0.24291028922201008,0.1875193167228688,0.13161443447204357,0.08824428573357768,0.09954776590298486,0.11010543588677457,0.11246812982818843,0.10656733743778579,0.11968394582116737,0.10676473529927444,0.07712327317656698,0.04828631532376626,0.06268811520112116,0.09172853008601134,0.10208156601807916,0.09844215585723193,0.0833524884313297,0.06365137883422323,0.049080379728770884,0.032276149200988424,0.022182670940475102,0.02332239019957827,0.03720406906918128,0.04027634121962009,0.04551979933211281,0.06824336755182436,0.1061366666683421,0.15320003687398387,0.20729352139338664,0.26151768411271714,0.3206782757938309,0.3732274121585557,0.4344224873457363,0.4961442788548869,0.5512883603628573,0.6075890246772939,0.6693591635516958,0.7301607174655791,0.7823938002958863,0.8414225730235096,0.8855049344386172,0.8784886549650062,0.824534419689555,0.7716636969807138,0.7103726998302768,0.6487072117568147,0.5939851302983321,0.5372202175110679,0.47544403843694116,0.4163260373482247,0.36354719311568306,0.3023348992923367,0.24174702865678688,0.18947295415381227,0.12951340363297748,0.0913062128492399,0.10145970149134032,0.1105312148205213,0.11357341991601455,0.10985705339264884,0.11409675354943571,0.10011148100552258,0.07053622746663102,0.06020703041416109,0.08465291653667029,0.10109478486642232,0.10123472080624119,0.09073345075944284,0.07676831141046003,0.056204962025467875,0.04001140608129017,0.02371217629866873,0.005336905434629058,0.0030341292619873172,0.003032595057276044,0.004760609722077147,0.02562216375931481,0.06436170946499198,0.11439162224065624,0.16609483682260562,0.22517666154566252,0.2773915118627932,0.3378416972212199,0.3968607717984556,0.44967834118854055,0.5109497859092036,0.5715063926511244,0.6236830818045545,0.6840183168001808,0.7409927464806754,0.778562300004896,0.7631539006920245,0.7128144377736558,0.6577635992722861,0.5976118353908584,0.5454813630134843,0.48477568850867403,0.4229405627957181,0.36110467623985976,0.2992687896840036,0.23744330000139158,0.1786256134570232,0.12567639935236263,0.06612109968720503,0.040212118089804516,0.056338302827081854,0.07750920818933693,0.08217258177774234,0.07697750758278943,0.06743899744592508,0.04924768620500597,0.01953399557835378,0.008886539690059259,0.03888499449851768,0.07084005683208439,0.08882502762997158,0.08971828844779894,0.08162656140004199,0.06415266869698755,0.05287337764635902,0.042370104214921156,0.02956091995569765,0.031744835975183516,0.0480248418373721,0.052640355484780965,0.056463708256258904,0.0783427624296631,0.12073075443085024,0.17660305348867222,0.22989223842510897,0.2905789693180485,0.3432406327690023,0.40256310333472234,0.46432911046855585,0.5208009916121061,0.575808466581269,0.6374909954041139,0.6977764650606972,0.7500373347705134,0.8105420826572147,0.8671667444382574,0.9111987239097403,0.9056304051730306,0.8573274394825474,0.8039278010605613,0.7424345740468481,0.68140136574107,0.6289275687415716,0.5693282803028636,0.5077602167527981,0.45379360737554775,0.39620605830970623,0.33439774843036885,0.2742510102854805,0.22206128723907703,0.16130931512995783,0.10643509324691847,0.10065969783703865,0.0945211673256523,0.09680378875761919,0.10330312716774515,0.11145683631686643,0.09599910414204738,0.06074437490829965,0.04664337118543349,0.07870565751875613,0.10788219742199523,0.1144258959451272,0.1070110864804783,0.0942644444260039,0.07396190452750462,0.054224828725867535,0.04926860963912638,0.026708922145627145,0.0,0.012188593013542581,0.020966580877787244,0.015636222570176495,0.015773452979408242,0.03015625713981218,0.07091497851175887,0.12076423090276789,0.1735804981781115,0.2313796472806522,0.2931873688976272,0.3550232554534851,0.4168587934312167,0.47790921678741594,0.5304721718896341,0.5899671635765751,0.6517965898285705,0.713561894733969,0.7698231593835994,0.8250354810941531,0.8860084058873396,0.9326410079686993,0.9378483290018487,0.8899064216011543,0.8376221532455159,0.7777515693884505,0.7160365607581141,0.6637930727491703,0.6249805025809123,0.5676088292099681,0.5057938395892876,0.44398026958773995,0.38587747081556234,0.3323534731919162,0.2708569001368102,0.20983472820931004,0.15736588300724463,0.09786019239647814,0.05104900703176085,0.05695703848916622,0.06485719237032406,0.061659738417831456,0.057751255977926075,0.06124935669452558,0.040958597656404194,0.010720935712044799,0.011970221555789085,0.04021870167293118,HB
0.15611590895067695,0.1743736468161723,0.19032751125870084,0.2107657498321025,0.2458432891898179,0.2877049464078676,0.331867778458357,0.3767258035453982,0.42691963662412213,0.4750034517682371,0.523105774668192,0.5714931925993061,0.6202417149838384,0.6682706398622766,0.7180232551450185,0.7672195970908313,0.8151121704522692,0.8645297806299554,0.9128550586009219,0.9593732028525301,0.9901513698892099,0.9671021671197368,0.9203625794050492,0.8740368755446637,0.8273166614458214,0.7749952830559952,0.726212000555019,0.672130502828721,0.6240335672011197,0.5732725367398062,0.5235857512552742,0.4749593276149293,0.42362471509045396,0.37790501615529815,0.33357724312921677,0.29585523564260585,0.283296619152404,0.2850914661976802,0.298274899346312,0.31368409962969146,0.30050240330229316,0.2695374659901659,0.2652098478472673,0.2793723700790198,0.2848080201014067,0.29015494344338677,0.2834489610016575,0.26980339879115256,0.24420478362311426,0.20707086669331876,0.16724157842706666,0.12541006033638036,0.08451902421340085,0.04534385377603756,0.013504925764013631,0.022819287491939955,0.058702591284992334,0.08724434593660035,0.114964803635774,0.13707400410982173,0.1548534317348107,0.1745693884176187,0.20647476088777927,0.2494671869388012,0.29411767972228087,0.33718182205553715,0.38358869771478643,0.4338621220452179,0.4851648072676311,0.533400874436804,0.5816660884863283,0.6316936650007103,0.6826233332392007,0.7316192117897029,0.7799933118024525,0.8282149602270081,0.8762782387186046,0.9247711670636218,0.9722041233624514,1.0,0.9807203768437112,0.9336386214902954,0.8790364623866669,0.8310101660634133,0.781559675243551,0.730745722569373,0.6815800142317956,0.6289473554753928,0.5782476314615732,0.5274203178224648,0.4782647796301591,0.4262358896197105,0.3784584443543262,0.33191873434604946,0.2874334129874858,0.2507173093855406,0.22991616663487657,0.2401267045532729,0.25876194719892687,0.2590824474525426,0.26405287269841327,0.2639665223271914,0.25452831647510776,0.23032675759174692,0.1982475532048953,0.15854037624609507,0.12022767267139356,0.07882207596159363,0.035454842040333556,0.0,0.005258810829788629,0.036573317461395805,0.06880076744394459,0.10181902321697178,0.12614449369951752,0.1449297780729233,0.16289691740996992,0.19176681786141847,0.23041220760677494,0.27464374964811356,0.31850327480346197,0.362195032290233,0.40827175272767824,0.4554653678453029,0.5030942374950229,0.5512866120095283,0.600968739358196,0.6491260901057334,0.7012299100612003,0.7503592895680993,0.80561865203634,0.854576487530581,0.9045530806862376,0.9510835597116309,0.9806926950620491,0.9609515227173882,0.9159899514892205,0.8679758769216637,0.8195673989509404,0.7702274897535326,0.7213217150207192,0.6700434720570163,0.6218788663393853,0.5697079889654666,0.5206853233728537,0.46512456545255576,0.41149708258064277,0.365894258078896,0.31985055090442915,0.2799210407544077,0.2571481474986379,0.2629500257077406,0.2748362796735271,0.29413226865679865,0.30006293455306743,0.2769431430572049,0.27036357860812243,0.2829600247103847,0.28450793138680885,0.277828047123571,0.2493716194936897,0.2140761851980817,0.16725441311421663,0.12421481146192215,0.0844042897845041,0.04605941207549202,0.029608343527301573,0.05335360951538415,0.08876899586547782,0.11878581844622293,0.14328525710411166,0.16366467084835357,0.17855705322099524,0.20134506889817527,0.23820166044781899,0.28174405541977166,0.32646635233913335,0.371188059343299,0.4160150201354953,0.46414105237588354,0.5127338269352977,0.5668706817655407,0.6149544286060822,0.6657919245642407,0.7148394983770929,0.7627496940681882,0.8123050220352903,0.8606091395435786,0.9088271638482248,0.9565219256607014,0.9903743667362765,0.9785879112309983,0.9322311025601491,0.8838565391361599,0.8347560463197192,0.7795118408647448,0.7305341273980464,0.6776052653249072,0.6272490122038681,0.576134119061184,0.5272230604590722,0.47591636766246226,0.4282435413758796,0.3813990937237377,0.3379818736305167,0.2994261297409393,0.27071629760258475,0.26458185183332317,0.2753085790048069,0.29701779938755823,0.2974803044935981,0.2766534465556407,0.2760829928821791,0.2843045249228733,0.2814597670139307,0.2596675980757652,0.2272371980748551,0.18647563982237747,0.14621404085728962,0.10616207831921254,0.0685889179584458,0.03393057108882003,0.032268823708004435,0.06254330872641245,0.09272717591459911,0.12334600987782962,0.145662453919301,0.1601851020670324,0.17196201850039872,0.2005801115989334,0.24141686797338902,0.28464101744566905,0.33131977083604114,0.3819810437805975,0.4270414480369942,0.47364574973286033,0.5227017420084519,0.5706645025618458,0.6217906696954216,0.6709454915629163,0.7198904053138486,0.7666435902002964,0.8164196292578181,0.8640906937099664,0.9113675134128565,0.9556329569784263,0.9662952625988455,0.9270464850394662,0.8788001910564431,0.8336975196787404,0.7844085925989552,0.7363658303674732,0.6821043654630756,0.6337008801249335,0.5838436113257346,HB
0.5645844457150573,0.5646726854512116,0.5756934948611643,0.5715677771865875,0.556859517849341,0.5266599674524515,0.49341073256625867,0.43750940460552146,0.3974888733914823,0.35537591529593504,0.3088863210388122,0.26239548425249604,0.22111631487190708,0.2131900693562705,0.22912920052376018,0.2766623777060082,0.32654344462675455,0.37966406879379777,0.4232191752453729,0.45437471679728114,0.4811507107858142,0.48346042437739856,0.48346130721433545,0.48344909199639075,0.476947298196865,0.4574846475036707,0.47618844653277526,0.5325177938128332,0.5566906955478079,0.5155350416745352,0.4937959030099086,0.5073067160936744,0.5104901083737077,0.5024576727258547,0.4477568138261403,0.3702179533059211,0.29782585880295676,0.20702831893061235,0.13550527266568269,0.08195589559550198,0.09954753668039062,0.1705233296338764,0.24710033940534215,0.3295175505619752,0.42248639919091735,0.5153595679207723,0.5940870940746001,0.6745282323792154,0.7674451939456541,0.8597202729898945,0.9332012092334661,0.9999999999999996,0.9551352314071271,0.880485149494207,0.7880191784094817,0.6994254191123086,0.6346922711213137,0.5850212143714697,0.5649626179977827,0.5645842343315652,0.5630929603108634,0.5415485509032361,0.5373551998596979,0.5201790251556466,0.48227172051205214,0.436967554136253,0.38204451150743113,0.3354498017191996,0.2889555575603251,0.24127041108075842,0.18906780961209657,0.15055870423591555,0.13229494664356123,0.14700422141507596,0.19179627417120892,0.24648621400143123,0.3004018217963851,0.3501107760645037,0.38927421760844494,0.4216618351448722,0.45051911093996333,0.44970320001522834,0.4301228043837262,0.4276899759038142,0.40307699955905063,0.3722577424761213,0.35015124875251624,0.3773098016816907,0.4235768889697602,0.4681280623134696,0.48334570703926394,0.4887877714887865,0.5093745981603832,0.5020506408648928,0.4665952143828904,0.40482978707746264,0.32726370757829626,0.25003018953478096,0.16729766937395185,0.09299359509407301,0.05314614366619086,0.08463519037149636,0.1639469426424447,0.23616850506588039,0.32387106898425033,0.4168624186255827,0.506519200264798,0.5777252887918727,0.668825574715743,0.7618037149182686,0.847043947752216,0.8951825190289617,0.8303414938899878,0.7582805303012754,0.6805676374548866,0.610637517938819,0.558979300848645,0.5379918294400343,0.53754339954815,0.53754339954815,0.5371832983652554,0.5187166094019546,0.49405759491390944,0.45602789030745994,0.4175028422735889,0.38183505172938625,0.3249719499407209,0.2765908654880369,0.2266076283105929,0.18512356731762702,0.1436812262284124,0.13206960150546232,0.14600845575399513,0.1928896373003064,0.2502298123044251,0.2970635203653056,0.3435680372974894,0.387681066961298,0.38827384013871447,0.3960938561119556,0.40232699055340104,0.40166421517471873,0.38190771765880305,0.35894551561172827,0.3483950888073166,0.35946493007484426,0.41612961882237487,0.44112317948523794,0.4294814883983924,0.43004113984622316,0.44914882352655683,0.4549522486232962,0.4231369876922435,0.3468701375476493,0.27532324486980597,0.20156674226379367,0.1176523875096005,0.04260976630013147,0.0,0.028852206929060653,0.09797888389674858,0.189494599386149,0.2686411692409538,0.3486750430972605,0.4415741964852038,0.5345741866357074,0.6275741767862075,0.7205739415646035,0.8126160087998913,0.8805635284376323,0.870403692353086,0.8016793576703551,0.7260730553886812,0.6638512204693936,0.6063034123333959,0.5684894605391944,0.564589506929559,0.5645844457150573,0.5634260288485771,0.5426811749926252,0.533687285251649,0.5057491516238373,0.46375187518001626,0.4172627570337837,0.3707686496524638,0.32426426026815536,0.2795535255759929,0.2377008052231564,0.19891311757116226,0.17666501397806256,0.17892997536121102,0.22399572147776192,0.2704992985765924,0.3170145746065871,0.3686078378484816,0.4197079406911448,0.4293546846020049,0.4293792148805209,0.42937892267392863,0.4277883343342279,0.40351842487907996,0.3726977604987547,0.3495044570785608,0.36942393294833353,0.42963212430369824,0.47673410823353946,0.4834497401574729,0.48346130721433545,0.48346039329159174,0.4810158887922982,0.4411339922436919,0.363754355563755,0.28991603508157526,0.20414734852961525,0.13175978458280602,0.08042293184801608,0.0955595356740111,0.17871069771710202,0.2716928005660466,0.3646884177616223,0.4541264682775954,0.5254157208766039,0.6166521502024502,0.7096516398714487,0.8020370997021318,0.8762055556661195,0.9572716100793879,0.964214428192832,0.8848045704493992,0.8062365672990262,0.7293158518699614,0.6639632245875942,0.6048758078893024,0.5717180568098406,0.5645950572426579,0.5645844457150573,0.5645830592880379,0.5603919961558117,0.5248316448332724,0.4923577830658812,0.4569526370495258,0.40512713035536363,0.36241411345037333,0.3178519959145958,0.2703680288783237,0.21090521158677378,0.16277969616451182,0.14534513639101965,0.14552798202544492,0.18985364347318567,0.23635887654898768,0.28335447379914,0.3477391863768857,0.4024662860079391,0.42855892403528406,HB
0.12681215179719185,0.11246077082296457,0.0968297753420635,0.0769551257811254,0.04198887636719362,0.01452826622661818,0.025792001128429387,0.053850341404198865,0.08433125852822565,0.11960500611821656,0.14698438609970932,0.18014800586722624,0.20741627370976135,0.22676414039648085,0.23519477852581971,0.271045133083454,0.31875226722637606,0.3703991679202203,0.4304500718734787,0.4927389931576496,0.5549432884208176,0.610598580102176,0.6667455419457156,0.7289381015040703,0.7883661338391912,0.8411304201248679,0.9025652512787374,0.9561122536526363,1.0,0.9963157606762869,0.9523615610869651,0.8999309790475376,0.8452123121570514,0.7831994256049533,0.7271019221031394,0.6716006801656653,0.6214019356509177,0.5750993753729996,0.522780929357749,0.4612104616868393,0.39910780605236607,0.3445767314745285,0.2878445336942108,0.2494278766728315,0.2419323847091963,0.21912364356828107,0.1863458810641334,0.15339687045998485,0.12290911563586926,0.12205430131104267,0.15705505906860173,0.17307144650753914,0.17837661675218586,0.1589506144137065,0.13608562235553867,0.10396738417622187,0.06874914177753721,0.0785321354177726,0.10815500040883119,0.13438958897751174,0.16335608447417593,0.18968170068912205,0.2092508249768441,0.2291077658838665,0.24619035905512376,0.27787862939102803,0.32718320378825805,0.382859136556883,0.43523337239812365,0.4937284735185421,0.5459452867080952,0.6069003206320462,0.6670577939884517,0.7194722533458568,0.7801919675383173,0.8294806432069337,0.8494697688389605,0.8141509648640892,0.7595886681882709,0.7075274197861701,0.6553434254556847,0.5939344165241169,0.5316470269366347,0.47193276525059735,0.4192839119619367,0.35851045668716974,0.30605912954448256,0.25294677822866785,0.22834303447432625,0.22636091191784713,0.21135883873497407,0.16757633314390574,0.13627674379469434,0.10268452933761862,0.06955058114907997,0.07171690803357533,0.10520297142747426,0.12232689581546596,0.11304141928896883,0.09247190755065127,0.07213967901550156,0.04215149558954501,0.034284636425672366,0.050700648523601455,0.06346707132118867,0.07539932309804565,0.07940489104982174,0.09757648856504142,0.1227053750890379,0.1578803303347156,0.20438333310032997,0.2562244600146055,0.3086772522028225,0.3638157366008694,0.4198051980735489,0.4762840183506496,0.5188843835829342,0.5126220857801025,0.4596918844156188,0.40755698794247364,0.35608248958625976,0.30448873204394733,0.2499818298435761,0.20002861927195692,0.1514047877426985,0.12381869197023576,0.13798424413381483,0.13032754989016793,0.10758151880709743,0.08413342967685411,0.055195526831659514,0.06021198079411327,0.10590181317206682,0.13582614142434224,0.14654707856255067,0.14933045142749934,0.15138754020090417,0.1507434438200974,0.15004225294331652,0.16391985997899505,0.18574582371521364,0.20527179499523474,0.20176048904106114,0.1976215887207995,0.20055698283057222,0.21847862920784733,0.2391214947690128,0.2890747969752905,0.3368710012326317,0.39167159515630745,0.44530718249703405,0.507192069647493,0.5645897954351624,0.6131968400420846,0.6279581067736868,0.58683239338658,0.527328902430412,0.47567879950276426,0.42402241271605945,0.36721764900253406,0.3215189486154171,0.27227993360372027,0.23147203343193823,0.24257135221932202,0.2518512514372131,0.21842586511289808,0.1917493421620886,0.16511448349744873,0.1296046280885097,0.09563579124616428,0.10974210581640476,0.1550517458704248,0.1684501844992079,0.16300343333782674,0.16465022046563593,0.1371620475063393,0.11648782574854133,0.09190878530969915,0.10023817609072694,0.12714014251987837,0.15326882756803473,0.16582056188632555,0.17125143311232405,0.18778898949962208,0.1868610397205681,0.20746899226163507,0.24019663775077804,0.29112545359652175,0.34825614736966504,0.40371275183241284,0.4561534952569115,0.5095994173824265,0.5662345195674994,0.6209362454313605,0.6724875693276702,0.6753932307112245,0.6311257434876096,0.5776646265008463,0.5254971243614515,0.4777828701176854,0.4167192461058473,0.35677011657826796,0.3042662356219088,0.24474328253916156,0.21047539277587823,0.20188954754318766,0.20351382919436567,0.169055098141488,0.14804034801570998,0.11551019987432376,0.07636388493050639,0.09296845528707287,0.12392240022293155,0.1227159825693227,0.12156336153174863,0.10869505169678995,0.07417933726696546,0.033087285724947346,0.0,0.002761541821723279,0.03601667567673528,0.07581015559501258,0.11425527904204724,0.15532243283698088,0.18733942739856824,0.19919218919543047,0.2169812399672315,0.23921031545126503,0.27955626418392354,0.3225134219523378,0.3730436705136482,0.4316102327465714,0.48393874261054215,0.5449714030604689,0.6000630822424102,0.656798934250038,0.7182535311632186,0.7708417606606188,0.8306505785902387,0.8902121377399017,0.9306783577084445,0.9650961073233377,0.9495527734322136,0.9019561965689489,0.851785584079785,0.7934692929090512,0.7405762001631615,0.6789574326148511,0.6229589563530391,0.5671520607074347,0.5049435033648457,0.44267900316472364,0.3847800201169562,0.3307622738602807,0.2730652598420704,HB
0.05748876439135864,0.07425105656798148,0.07331318150198607,0.08308982713213875,0.1018231871909665,0.12120398478632555,0.13230105848950657,0.11799791812387572,0.123254029070061,0.1650763943713509,0.20891923172648497,0.25290651482992543,0.2937713261038868,0.3171272601892674,0.3026303515179032,0.27132011728353533,0.2382235926599281,0.20572159317968564,0.17857238680667353,0.1498524071246652,0.11415206398468736,0.08734896518894009,0.09093200712771599,0.10250333549991852,0.12912533918715874,0.1774986986559708,0.22980612331823136,0.2830417757253214,0.3403727471821305,0.39464694772522413,0.4515865234055043,0.5082926034521911,0.5628236558925999,0.6238561914929723,0.6822813422338612,0.7354160722495051,0.7959780112075567,0.8505802571381145,0.9072242703187696,0.9639298567468615,0.9714044504758672,0.9265597851841669,0.8661315128091547,0.8050538918325996,0.7501950185627468,0.6938045294799069,0.6326152375226306,0.5713760138692059,0.5101367902157803,0.4489116887447293,0.39055974805333915,0.33739798825594325,0.27662003728438234,0.21538096647731697,0.1541514177454273,0.09548650647246082,0.052248552057367004,0.06915757046665871,0.08661690502872954,0.07617263345332703,0.08968851099264219,0.09980804711010283,0.10453285453797756,0.11458990689408544,0.12745316440215548,0.1277664112593171,0.11998553446243321,0.15177756307935497,0.19752924076099077,0.24503893900325813,0.2932749944148745,0.32718580143360376,0.3358024672544426,0.3098638235147042,0.27648767528140206,0.23277581313612639,0.19533409885976094,0.15913214330091785,0.1299582484092907,0.10197488353634387,0.06950227701800471,0.07393135821106633,0.09116724683393684,0.11063646084667256,0.1546621175451912,0.20466581246347992,0.2556036446272276,0.31329191835818304,0.36609599950221194,0.42470027117103437,0.47725436182689296,0.5328300777924777,0.5876866541630703,0.6475185370851333,0.6999239991381832,0.7597971405782598,0.8184137252040211,0.866825619282195,0.8830347362478779,0.8413619350124761,0.780721829178386,0.7241775267449737,0.669469238646687,0.6083887314619354,0.5471495078085098,0.4859102841550851,0.4246710605016608,0.3634318368482352,0.30219261319481006,0.2409539969761343,0.1804752542736452,0.1278514297379958,0.070195012846199,0.05398096374080397,0.07414053870825743,0.05326733036501574,0.051371032872860045,0.05979138662629668,0.07644304539938562,0.09586837268584758,0.10959342858531218,0.12185635562680974,0.1316624491605165,0.13918899411375518,0.17831260658780423,0.22083962257079337,0.26154294668278366,0.2946723531643374,0.30567786642717576,0.2859614918829039,0.25044920850915475,0.21408457226841193,0.1754629072036269,0.1377705874829649,0.11514094738429259,0.08359067413943211,0.04973694189265432,0.026421332791873198,0.0418420372500663,0.0685772344249056,0.10712712313085282,0.15027497996668826,0.2044124876718718,0.2567687556945544,0.3088763996643238,0.3472871253566525,0.40516637108692044,0.4663944876061905,0.5276272313941124,0.5866601410705605,0.6393774088868047,0.6998804508291931,0.7570806516303088,0.8029250339333223,0.8498986599048852,0.9064605541031618,0.9579378555818223,0.9756386701555206,0.934827310568582,0.8779365415487861,0.824106928492079,0.7631691868497141,0.7019299631962885,0.6406913948171689,0.5802669442809998,0.527662505852468,0.46840871104168635,0.40758613616900763,0.3591820356677238,0.3074304188032777,0.2463730978432821,0.1892811367871725,0.1350773945242083,0.07406004921008957,0.014233125952036296,0.0,0.04709462509464912,0.09450821661034015,0.1101619120659636,0.10987749687058179,0.08475156153087693,0.08730176599050532,0.11359911126856503,0.12825424361336668,0.12861931470782362,0.12483374174874506,0.12410211912581093,0.11163602033645925,0.08408716066768873,0.052554288463322774,0.06106364763098626,0.07984092762355344,0.09607735116122584,0.11182312167624953,0.12840291086311728,0.14995604596404477,0.17802339958162605,0.20644458566312118,0.2400730990691431,0.2587677938014341,0.24714019782234664,0.21508383872852144,0.1800867809695399,0.15211049829503454,0.12644437046218693,0.11367126129235006,0.10663282674966368,0.0813064131235599,0.08570553502913669,0.1230259289534803,0.1722795201722973,0.23274234719395492,0.28776753812372635,0.3432060997356847,0.39583431528783763,0.45494445242077464,0.5129488729718792,0.566392401252952,0.6272281041272143,0.6866291875372104,0.7391938306906456,0.7992681937020512,0.8533777100274189,0.910412849314125,0.9646097317114843,1.0000000000000002,0.9777417500740306,0.9199588657706601,0.8587329923891358,0.7991749389212821,0.7466997780556104,0.6864509943015251,0.6252126940040854,0.5639734703506611,0.5027539279556559,0.44488405046276003,0.3913346330890499,0.33045681294823726,0.26921764661219805,0.20797842295877134,0.14673927095207895,0.0864614451304555,0.0674209311736762,0.11056087167800666,0.13940838915955478,0.1448053362732793,0.1296007117352953,0.09871594841372411,0.08370161906872697,0.09593989521515556,0.11195370866996934,0.1192202856822786,0.12346935802006676,0.12608828598426025,0.15381257178494234,HB
0.4915275259114624,0.4923472261375781,0.47844236770792814,0.46930776533391394,0.4518481086337256,0.4303306223677055,0.4344509865907584,0.4671048290893427,0.48665022125029234,0.4900556856478173,0.48044633277550797,0.4428698397118125,0.3978200067126796,0.35260986565846886,0.30643049131809286,0.26056706916315764,0.21067408619379036,0.16305947718922364,0.11833337748814476,0.0686224792442982,0.021407295171658403,0.0,0.022453756941437808,0.0598457052606155,0.10908422284179242,0.15908977128440294,0.2089385057926716,0.2542374924694737,0.30117427114579054,0.3511453314104902,0.40115165590581703,0.4511579804011441,0.5011643048964707,0.5511706293917975,0.6011769538871243,0.6511832783824512,0.7011896028777782,0.7511959273731048,0.8012022518684316,0.8512076986192374,0.9004911295521423,0.9350634231338655,0.9146820543357639,0.8808010386981593,0.834762259519817,0.784797861586167,0.7362420370787095,0.6921330010010751,0.6428541066234992,0.5971866211168448,0.5515077037489049,0.5080993100564615,0.4673148387613455,0.4340732193132999,0.4111736313760952,0.3936646370055914,0.38567470852194763,0.39091497229732264,0.40680489918073537,0.4296316595680709,0.44012179519766836,0.4434555275931975,0.4526072588426051,0.45510776359942295,0.44678456479187023,0.43486461438515667,0.4160769329533909,0.41465845795023903,0.4425584702563601,0.4714775280244663,0.4849309715274317,0.492956277101519,0.47311054688445675,0.4303515473641064,0.38619209348635075,0.33893434122693233,0.29427515130543846,0.24513953781689213,0.20102977743522366,0.15252112041893318,0.10275155887192511,0.05819506877694258,0.026109297506765383,0.04781266094871628,0.09688937222349236,0.1453842927570812,0.18950084897520358,0.23894417079658958,0.2889499653194272,0.3389562898147538,0.3889626143100815,0.43891625274799684,0.4854748704512042,0.5311234380998244,0.5810181543249453,0.6310244788202728,0.6810308033155994,0.7310371278109262,0.781038783382421,0.8296405899202215,0.8731062045540197,0.9120403255695113,0.9430980996113212,0.918124335199968,0.8708777928167357,0.8209208425130041,0.7737581203939374,0.7286676518980022,0.6792440412282579,0.6348542843941543,0.5879229890369564,0.5442997177929412,0.501066821746359,0.4627771262303868,0.43598403321881674,0.42530490190534276,0.4276410024826023,0.4377111536537479,0.4540566375096029,0.4752924563728427,0.48000102984273063,0.47641538298567476,0.48510617871765915,0.4881811714402382,0.4853292485845395,0.474220260826695,0.4525443540738594,0.44394603934283383,0.4655555391449042,0.49070712213926737,0.5046739084486425,0.5167351809830463,0.4974983673823441,0.45604668924116987,0.41043608222111083,0.3656156781154667,0.32895574415553264,0.2882531806519224,0.23884826180336272,0.19387560976758955,0.14656545945184307,0.09665494538868258,0.051437112534490126,0.036379298330961096,0.07297336209982885,0.11886194464556255,0.1687785167665955,0.2187830308162415,0.26775886108974123,0.3117437710869413,0.360835551405549,0.4108403812767869,0.4608467057721135,0.5108530046354895,0.5606863080480873,0.6058527085147536,0.6529332693819123,0.702908570282305,0.7529148947776316,0.8029212192729582,0.8529110534574955,0.9004582195262596,0.9274761558497533,0.8956126436302996,0.8509445568824092,0.8012453278100105,0.7545983737111559,0.7090309487203119,0.6597165591368812,0.615604283340301,0.5685942576767697,0.5254891367170371,0.4852135436044971,0.4494330789743455,0.43133530213492377,0.4219422925162233,0.41823542206273845,0.4277665803624653,0.44613214574855453,0.4624663129177464,0.46523811018024763,0.4741108314053879,0.4790437904519904,0.47021547911461825,0.4627287092372807,0.44545171152256535,0.42786845542385765,0.4405732646477336,0.47055379768989813,0.49143409088377954,0.5005896783532195,0.4950629165255265,0.4575008467714705,0.4129448289419082,0.36672938765679675,0.331545812343516,0.28701498470826126,0.23706840365552573,0.18706223847263037,0.13745002767541803,0.09304637671887139,0.04575924167588419,0.016338971932291058,0.03987012152394831,0.0884043469405087,0.1349394620389166,0.18060879620497128,0.23050507356551453,0.28051139806084113,0.33051772255616796,0.38048689412926207,0.42740954879586157,0.4727214818113119,0.5225732625710318,0.5725795870663584,0.622585911561687,0.6725918764596335,0.7220905356728595,0.7663061553211892,0.814647965115564,0.8646477760718774,0.9146541005672042,0.9645434785698868,1.0,0.9740248072302908,0.9249667244934974,0.8752068667254824,0.8304116064167426,0.7870609401941666,0.7480328583395999,0.7017593069624495,0.6566326106959843,0.6076388840330771,0.5636402738169064,0.5153746113941999,0.47395646190801943,0.44407122512381725,0.42993087583484124,0.4164623024126024,0.4106869259066115,0.40849798479184196,0.4269707296011769,0.45135218441401403,0.46746553783627,0.46780171758882605,0.47469718316537235,0.48293322453361576,0.4828233830555253,0.4724930616302949,0.4627656102146762,0.4443848081148374,0.4347231656152295,0.45347972185324115,0.4876024016384459,0.5030202201251748,HB
